Structure Position, RAO-Based Response
Line A: Structure Position, RAO-Based Response - Global Z (Part - Center of Gravity relative to Origin of Fixed Reference Axes (FRA)) [m]
Line B: Structure Position, RAO-Based Response - Global RX (Part) [°]
Line C: Structure Position, RAO-Based Response - Global RY (Part) [°]

*Time (s),Line A (m),Line B (°),Line C (°)
0.0,-6.33870877209119E-05,-4.43515091319568E-05,-7.15997430233983E-08
0.1,-8.71767551871017E-05,-4.52829917776398E-05,-8.82953727909808E-08
0.2,-1.1160783469677E-04,-4.4261512812227E-05,3.04986969013044E-08
0.3,-1.33286550408229E-04,-4.12771951232571E-05,2.99004625503585E-07
0.4,-1.49123967275955E-04,-3.65377491107211E-05,6.98699864187802E-07
0.5,-1.56824011355639E-04,-3.04446602967801E-05,1.17960269108153E-06
0.6,-1.55243906192482E-04,-2.35427287407219E-05,1.66878805885062E-06
0.7,-1.4457204088103E-04,-1.64504290296463E-05,2.0827790194744E-06
0.8,-1.26292346976697E-04,-9.77919899014523E-06,2.34273716159805E-06
0.9,-1.02940743090585E-04,-4.05517675972078E-06,2.38923712458927E-06
1,-7.76968008722179E-05,3.47822179946888E-07,2.19390040001599E-06
1.1,-5.38738167961128E-05,3.25225869346468E-06,1.76566834397818E-06
1.2,-3.43960455211345E-05,4.69319411422475E-06,1.15048737825418E-06
1.3,-2.13450020964956E-05,4.90312868350884E-06,4.2435070213287E-07
1.4,-1.56491605594056E-05,4.26702990807826E-06,-3.19104231039091E-07
1.5,-1.69703016581479E-05,3.25542259815848E-06,-9.84211055765627E-07
1.6,-2.38007360167103E-05,2.34456388170656E-06,-1.48924982568133E-06
1.7,-3.37524834321812E-05,1.93564369510568E-06,-1.7801336298362E-06
1.8,-4.39946743426844E-05,2.28733915719204E-06,-1.83864722202998E-06
1.9,-5.17584594490472E-05,3.47092918673297E-06,-1.68467170169606E-06
2,-5.48294992768206E-05,5.35710069016204E-06,-1.37127540256188E-06
2.1,-5.19430795975495E-05,7.63728439778788E-06,-9.73927853920031E-07
2.2,-4.30149775638711E-05,9.87712519417983E-06,-5.7581411283536E-07
2.3,-2.91717205982422E-05,1.15941611511516E-05,-2.51982015697649E-07
2.4,-1.25725364341633E-05,1.2348475138424E-05,-5.53202355035865E-08
2.5,3.94851031160215E-06,1.18301013571909E-05,-6.9784724665567E-09
2.6,1.73560074472334E-05,9.93116645986447E-06,-9.30264008047743E-08
2.7,2.49306813202566E-05,6.78609967508237E-06,-2.67984574975344E-07
2.8,2.47379975917283E-05,2.77508661383763E-06,-4.64542267764045E-07
2.9,1.59753017214825E-05,-1.51490212374483E-06,-6.07630624926969E-07
3,-8.65221181811648E-07,-5.36436755282921E-06,-6.30168472071091E-07
3.1,-2.40432182181394E-05,-8.02396971266717E-06,-4.8748762537798E-07
3.2,-5.0819759053411E-05,-8.82708627614193E-06,-1.67625984204278E-07
3.3,-7.78715620981529E-05,-7.29640805730014E-06,3.04501753589648E-07
3.4,-1.01801189885009E-04,-3.2265422760247E-06,8.69978123319015E-07
3.5,-1.19660260679666E-04,3.27197585647809E-06,1.44535056278983E-06
3.6,-1.29401523736306E-04,1.17763465823373E-05,1.93705136553035E-06
3.7,-1.3018460595049E-04,2.160283838748E-05,2.26218071475159E-06
3.8,-1.22488447232172E-04,3.19003920594696E-05,2.34833078138763E-06
3.9,-1.08010346593801E-04,4.17723131249659E-05,2.165921159758E-06
4,-8.9372115326114E-05,5.04066374560352E-05,1.73486853327631E-06
4.1,-6.9678710133303E-05,5.71950622543227E-05,1.10288374344236E-06
4.2,-5.20068970217835E-05,6.18205522187054E-05,3.53775504891018E-07
4.3,-3.89053238905035E-05,6.42976374365389E-05,-4.10502366321452E-07
4.4,-3.19905375363305E-05,6.49603680358268E-05,-1.08700771761505E-06
4.5,-3.17014200845733E-05,6.43965395283885E-05,-1.58904174440977E-06
4.6,-3.7258902011672E-05,6.33392191957682E-05,-1.8605193190524E-06
4.7,-4.68271100544371E-05,6.25347602181137E-05,-1.88473438811343E-06
4.8,-5.7855428167386E-05,6.26079854555428E-05,-1.6860750520209E-06
4.9,-6.75403643981554E-05,6.39471036265604E-05,-1.32412640141411E-06
5,-7.33299311832525E-05,6.66314881527796E-05,-8.82015740444331E-07
5.1,-7.33856504666619E-05,7.04129197401926E-05,-4.50048077027532E-07
5.2,-6.69232322252356E-05,7.47563899494708E-05,-1.08741069482221E-07
5.3,-5.43773712706752E-05,7.89339828770608E-05,8.61373337102123E-08
5.4,-3.73585571651347E-05,8.21585126686841E-05,1.13660441058983E-07
5.5,-1.84119908226421E-05,8.37306142784655E-05,-8.94361740222394E-09
5.6,-6.11983921317005E-07,8.31793586257845E-05,-2.30440221571371E-07
5.7,1.29344762171968E-05,8.0365571193397E-05,-4.76146908567898E-07
5.8,1.95982302102493E-05,7.55336004658602E-05,-6.63267655909294E-07
5.9,1.7668493455858E-05,6.92965841153637E-05,-7.17780039849458E-07
6,6.64687468088232E-06,6.25579050392844E-05,-5.89899855185649E-07
6.1,-1.26504737636424E-05,5.63793364563026E-05,-2.6506671702009E-07
6.2,-3.82035068469122E-05,5.18167471454944E-05,2.31616141377344E-07
6.3,-6.70886147418059E-05,4.97494220326189E-05,8.38454752738471E-07
6.4,-9.59281460382044E-05,5.07339827890974E-05,1.46720719840232E-06
6.5,-1.21409058920108E-04,5.49060059711337E-05,2.01836883206852E-06
6.6,-1.40789634315297E-04,6.19477286818437E-05,2.3988552584342E-06
6.7,-1.52311127749272E-04,7.11303073330782E-05,2.53910366154741E-06
6.8,-1.55448986333795E-04,8.14219092717394E-05,2.40555027630762E-06
6.9,-1.50960535393097E-04,9.16481876629405E-05,2.00833596863959E-06
7,-1.4072735211812E-04,1.00675570138264E-04,1.39940493681934E-06
7.1,-1.27415158203803E-04,1.07590101833921E-04,6.6462558834246E-07
7.2,-1.14010057586711E-04,1.11837864096742E-04,-9.07520742998713E-08
7.3,-1.03311518614646E-04,1.13307163701393E-04,-7.59825127261138E-07
7.4,-9.74596187006682E-05,1.12333829747513E-04,-1.25219855817704E-06
7.5,-9.75821894826367E-05,1.09631604573224E-04,-1.50890218719724E-06
7.6,-1.03616548585705E-04,1.06157531263307E-04,-1.51168319462158E-06
7.7,-1.14334470708854E-04,1.02935126051307E-04,-1.28494718865113E-06
7.8,-1.27566876471974E-04,1.00867029686924E-04,-8.89997068043158E-07
7.9,-1.40590971568599E-04,1.0056856990559E-04,-4.12707862551542E-07
8,-1.50614578160457E-04,1.02251658972818E-04,5.29458290543516E-08
8.1,-1.55274043208919E-04,1.05682105640881E-04,4.22562209223543E-07
8.2,-1.53064684127457E-04,1.10214983578771E-04,6.3689924445498E-07
8.3,-1.43631303217262E-04,1.14906593807973E-04,6.72458554618061E-07
8.4,-1.27866296679713E-04,1.18682226457167E-04,5.45128102658055E-07
8.5,-1.07803709397558E-04,1.20531120046508E-04,3.06272369243743E-07
8.6,-8.63161621964537E-05,1.1969635670539E-04,3.20855839675005E-08
8.7,-6.66720734443516E-05,1.15824041131418E-04,-1.9188605904219E-07
8.8,-5.20210305694491E-05,1.09045766294003E-04,-2.88009061932826E-07
8.9,-4.48913306172471E-05,9.99796975520439E-05,-2.02464889298426E-07
9,-4.67840618512128E-05,8.96462734090164E-05,8.33387545640107E-08
9.1,-5.79276093048975E-05,7.93132712715305E-05,5.47890010693663E-07
9.2,-7.7236101788003E-05,7.02952092979103E-05,1.13221051378787E-06
9.3,-1.02476638858207E-04,6.37400880805217E-05,1.74975025402091E-06
9.4,-1.30618500406854E-04,6.04406450293027E-05,2.30144928536902E-06
9.5,-1.58309150720015E-04,6.07028159720358E-05,2.69356496573891E-06
9.6,-1.82395757292397E-04,6.42919185338542E-05,2.85467899630021E-06
9.7,-2.00410897377878E-04,7.04710400896147E-05,2.74898616225983E-06
9.8,-2.1094131807331E-04,7.81217313488014E-05,2.3810925995349E-06
9.9,-2.13820661883801E-04,8.59278443385847E-05,1.80424387963285E-06
10,-2.10113648790866E-04,9.25927961361594E-05,1.09934546799195E-06
10.1,-2.01901901164092E-04,9.70528708421625E-05,3.71905002793937E-07
10.2,-1.9190032617189E-04,9.86488885246217E-05,-2.77529949244126E-07
10.3,-1.8297390488442E-04,9.72274865489453E-05,-7.56514339173009E-07
10.4,-1.77634530700743E-04,9.3156544608064E-05,-1.00543024927902E-06
10.5,-1.77601788891479E-04,8.72485106810927E-05,-1.00451086382236E-06
10.6,-1.83502517757006E-04,8.06077587185428E-05,-7.76005038005678E-07
10.7,-1.94756459677592E-04,7.44285716791637E-05,-3.82047858238366E-07
10.8,-2.09673075005412E-04,6.97768628015183E-05,1.03377992388687E-07
10.9,-2.25735566345975E-04,6.73963004373945E-05,5.78122978822648E-07
11,-2.40032066358253E-04,6.75700139254332E-05,9.57900738285389E-07
11.1,-2.49761069426313E-04,7.00665405020118E-05,1.18989248676371E-06
11.2,-2.52720405114815E-04,7.41735348128714E-05,1.24505766052607E-06
11.3,-2.4770715390332E-04,7.88211837061681E-05,1.14011970708816E-06
11.4,-2.34754144912586E-04,8.27673502499238E-05,9.1476834995774E-07
11.5,-2.15166743146256E-04,8.48174604470842E-05,6.4506906483075E-07
11.6,-1.91347135114484E-04,8.40378779685125E-05,4.13071120419772E-07
11.7,-1.66441619512625E-04,7.99270637799054E-05,2.89799515940103E-07
11.8,-1.43858036608435E-04,7.25136706023477E-05,3.36830737523997E-07
11.9,-1.26738334074616E-04,6.23648593318649E-05,5.69826511309657E-07
12,-1.17472067358904E-04,5.05017524119467E-05,9.70503265307343E-07
12.1,-1.17324147140607E-04,3.8236343243625E-05,1.48486685702665E-06
12.2,-1.26247832668014E-04,2.69584852503613E-05,2.03238982976472E-06
12.3,-1.42901073559187E-04,1.79079306690255E-05,2.52041195381025E-06
12.4,-1.64873054018244E-04,1.19711812658352E-05,2.86089834844461E-06
12.5,-1.89080790732987E-04,9.5375617092941E-06,2.98670988740923E-06
12.6,-2.12265775189735E-04,1.04390173873981E-05,2.86417366623937E-06
12.7,-2.31516329222359E-04,1.39848798426101E-05,2.49975437327521E-06
12.8,-2.44723225478083E-04,1.90834052773425E-05,1.93951950677729E-06
12.9,-2.50899640377611E-04,2.44306702370523E-05,1.26156999158411E-06
13,-2.50307872192934E-04,2.87345465039834E-05,5.62759964850557E-07
13.1,-2.44378024945036E-04,3.09321694658138E-05,-5.39028270907238E-08
13.2,-2.35431434703059E-04,3.03689503198257E-05,-5.12003282437945E-07
13.3,-2.26253789151087E-04,2.69023257715162E-05,-7.51849768221291E-07
13.4,-2.19593610381708E-04,2.09185000130674E-05,-7.59148008455668E-07
13.5,-2.17668479308486E-04,1.32561744976556E-05,-5.42795930869033E-07
13.6,-2.21762442379259E-04,5.05292155139614E-06,-1.7008389363582E-07
13.7,-2.31983751291409E-04,-2.45989190261753E-06,2.80947432429457E-07
13.8,-2.47221963945776E-04,-8.17648833617568E-06,7.35911839910841E-07
13.9,-2.65315902652219E-04,-1.13130645331694E-05,1.10511746242992E-06
14,-2.83399102045223E-04,-1.15478987936513E-05,1.33682738123753E-06
14.1,-2.98377271974459E-04,-9.0794137577177E-06,1.40731083320134E-06
14.2,-3.07444512145594E-04,-4.59416742160101E-06,1.3280555322126E-06
14.3,-3.08565533487126E-04,8.50675974106707E-07,1.14226668301853E-06
14.4,-3.00832354696468E-04,6.00842213316355E-06,9.15303928650246E-07
14.5,-2.84647161606699E-04,9.65682920650579E-06,7.20922344044084E-07
14.6,-2.61687848251313E-04,1.08081030703033E-05,6.25970756118477E-07
14.7,-2.34669176279567E-04,8.87771966517903E-06,6.7648932144948E-07
14.8,-2.06933458684944E-04,3.78416393687075E-06,8.87852422692958E-07
14.9,-1.81940733455122E-04,-4.03718922825647E-06,1.24082737329445E-06
15,-1.62735232152045E-04,-1.37083397930837E-05,1.68428789493191E-06
15.1,-1.5148201782722E-04,-2.40585541178007E-05,2.14421447708446E-06
15.2,-1.49142273585312E-04,-3.3820717362687E-05,2.53701341534907E-06
15.3,-1.55348083353601E-04,-4.18445415562019E-05,2.78505831374787E-06
15.4,-1.68488011695445E-04,-4.72862448077649E-05,2.82952532870695E-06
15.5,-1.85994576895609E-04,-4.97448818350676E-05,2.6483908186492E-06
15.6,-2.04781972570345E-04,-4.9321821279591E-05,2.25102553486067E-06
15.7,-2.2176060883794E-04,-4.65935045212973E-05,1.68428914548713E-06
15.8,-2.34351551625878E-04,-4.25042344431859E-05,1.02396734291688E-06
15.9,-2.40899316850118E-04,-3.81973950425163E-05,3.56752622110434E-07
16,-2.40931898588315E-04,-3.48153735103551E-05,-2.24280043426006E-07
16.1,-2.35214218264446E-04,-3.33017378579825E-05,-6.45711338620458E-07
16.2,-2.25591633352451E-04,-3.42408893629909E-05,-8.6059907289382E-07
16.3,-2.14650921407156E-04,-3.77605101675726E-05,-8.56739688970265E-07
16.4,-2.05251315492205E-04,-4.3514468416106E-05,-6.57482530641573E-07
16.5,-2.00011912966147E-04,-5.07467484567314E-05,-3.16012261691867E-07
16.6,-2.00832990230992E-04,-5.84244407946244E-05,9.50703551438892E-08
16.7,-2.08544268389232E-04,-6.54179602861404E-05,4.98582835462003E-07
16.8,-2.22724600462243E-04,-7.06939172232524E-05,8.26907125883736E-07
16.9,-2.41739326156676E-04,-7.34913410269655E-05,1.03350623703591E-06
17,-2.62980407569557E-04,-7.34490386093967E-05,1.10153121113399E-06
17.1,-2.83274275716394E-04,-7.06628779880702E-05,1.04679838841548E-06
17.2,-2.99392471788451E-04,-6.56672200420871E-05,9.11002985048981E-07
17.3,-3.08576942188665E-04,-5.93407276028302E-05,7.53723668367456E-07
17.4,-3.08995862724259E-04,-5.27571501152124E-05,6.39174231764628E-07
17.5,-3.0005513690412E-04,-4.70057639176957E-05,6.22331981503521E-07
17.6,-2.82510940451175E-04,-4.30121326644439E-05,7.36998060801852E-07
17.7,-2.58364743785933E-04,-4.13897942053154E-05,9.87957605502743E-07
17.8,-2.30560297495686E-04,-4.23481469624676E-05,1.34887841340969E-06
17.9,-2.02528448426165E-04,-4.56688649137504E-05,1.76624371306389E-06
18,-1.77652953425422E-04,-5.07564327563159E-05,2.16899525184999E-06
18.1,-1.58751921844669E-04,-5.67488386877813E-05,2.4811686216708E-06
18.2,-1.47649756399915E-04,-6.26722176093608E-05,2.63641732090036E-06
18.3,-1.44913865369745E-04,-6.7610562837217E-05,2.59058697338332E-06
18.4,-1.49802435771562E-04,-7.08598818164319E-05,2.33068726629426E-06
18.5,-1.60421957843937E-04,-7.20446987543255E-05,1.87805289897369E-06
18.6,-1.74074433743954E-04,-7.11738248355687E-05,1.28544661492924E-06
18.7,-1.87730591278523E-04,-6.86313433106989E-05,6.28403256541787E-07
18.8,-1.9855449500028E-04,-6.51017980999313E-05,-7.51928297404447E-09
18.9,-2.04387455596589E-04,-6.14466262049973E-05,-5.41165377399011E-07
19,-2.04110736376606E-04,-5.85515845159534E-05,-9.09440871055267E-07
19.1,-1.97832545381971E-04,-5.71734126424417E-05,-1.0774588190543E-06
19.2,-1.86858407687396E-04,-5.78094550292008E-05,-1.04349214780086E-06
19.3,-1.73460837686434E-04,-6.06140747549944E-05,-8.37884158499946E-07
19.4,-1.60476978635415E-04,-6.53714596410282E-05,-5.16125282956637E-07
19.5,-1.50810155901127E-04,-7.15328060323372E-05,-1.4748707144463E-07
19.6,-1.46914593642578E-04,-7.83063660492189E-05,1.98464206846438E-07
19.7,-1.50349267642014E-04,-8.47856936161406E-05,4.65115022052487E-07
19.8,-1.61480449605733E-04,-9.00958257261664E-05,6.19094066678372E-07
19.9,-1.79379931068979E-04,-9.35299176489934E-05,6.55733174426132E-07
20,-2.0193969248794E-04,-9.46572763496079E-05,5.98884867031302E-07
20.1,-2.26182150072418E-04,-9.33838527998887E-05,4.94881760459975E-07
20.2,-2.48718744842336E-04,-8.99574879440479E-05,4.0204378137787E-07
20.3,-2.66285322140902E-04,-8.49194620968774E-05,3.77822317432219E-07
20.4,-2.76254868367687E-04,-7.90117192082107E-05,4.65965257490097E-07
20.5,-2.77058483334258E-04,-7.30547544662841E-05,6.864190709166E-07
20.6,-2.68433039309457E-04,-6.7818742536474E-05,1.02972933291312E-06
20.7,-2.51463352469727E-04,-6.39089994365349E-05,1.45730871281557E-06
20.8,-2.28403529035859E-04,-6.16814722889103E-05,1.9074495867244E-06
20.9,-2.02319017262198E-04,-6.12045841990039E-05,2.30608384299558E-06
21,-1.76592075149529E-04,-6.22667430434376E-05,2.58029126598558E-06
21.1,-1.54391134856269E-04,-6.44317551632412E-05,2.67190034719533E-06
21.2,-1.38173330924474E-04,-6.71262969262898E-05,2.548842530814E-06
21.3,-1.29312451463193E-04,-6.97484283591621E-05,2.21186428461806E-06
21.4,-1.27910476294346E-04,-7.1772446972318E-05,1.69543579886522E-06
21.5,-1.32819404825568E-04,-7.28418599464931E-05,1.06254367437941E-06
21.6,-1.41874101245776E-04,-7.28260565665551E-05,3.94339252807185E-07
21.7,-1.52289125253446E-04,-7.18395094736479E-05,-2.23441730895502E-07
21.8,-1.6115783364512E-04,-7.02184916008264E-05,-7.14998293460667E-07
21.9,-1.65965713676997E-04,-6.84617916704156E-05,-1.02692683867645E-06
22,-1.6503753431607E-04,-6.71434318064712E-05,-1.13666499146348E-06
22.1,-1.57833375851624E-04,-6.6816748585552E-05,-1.05513367998356E-06
22.2,-1.45053665619344E-04,-6.79197837598622E-05,-8.23353389023396E-07
22.3,-1.28530460642651E-04,-7.07009749021381E-05,-5.03509454574669E-07
22.4,-1.10923450847622E-04,-7.51753395888954E-05,-1.66419681590924E-07
22.5,-9.52684640651569E-05,-8.11153222457506E-05,1.2244099423242E-07
22.6,-8.44622481963597E-05,-8.80801817402244E-05,3.15391929461839E-07
22.7,-8.07591495686211E-05,-9.54748538788408E-05,3.91429779256214E-07
22.8,-8.53692108648829E-05,-1.02633086498827E-04,3.62668316711279E-07
22.9,-9.82255514827557E-05,-1.08908352558501E-04,2.5917276502696E-07
23,-1.17960335046519E-04,-1.13760361273307E-04,1.39770889973079E-07
23.1,-1.42092772875912E-04,-1.16826347948518E-04,6.72327260531347E-08
23.2,-1.67398771736771E-04,-1.1796344188042E-04,9.77136167534809E-08
23.3,-1.90407139598392E-04,-1.17261763080023E-04,2.6816638865057E-07
23.4,-2.07935285288841E-04,-1.15024675324094E-04,5.87316151268169E-07
23.5,-2.17582986806519E-04,-1.11718974949326E-04,1.03195748124563E-06
23.6,-2.1809566533193E-04,-1.07907093479298E-04,1.5495587604164E-06
23.7,-2.09548335988075E-04,-1.04167767858598E-04,2.0664895146183E-06
23.8,-1.93311236216687E-04,-1.01018114946783E-04,2.49567847276921E-06
23.9,-1.71810592291877E-04,-9.88490501185879E-05,2.77671256299072E-06
24,-1.48118590004742E-04,-9.78810567175969E-05,2.83348617813317E-06
24.1,-1.25449994811788E-04,-9.81477060122415E-05,2.6576749405649E-06
24.2,-1.06635001429822E-04,-9.95061127468944E-05,2.25586859414761E-06
24.3,-9.36714059207588E-05,-1.01674922916573E-04,1.67516259352851E-06
24.4,-8.74149627634324E-05,-1.04290156741627E-04,9.90313651527686E-07
24.5,-8.74689503689297E-05,-1.06973544461653E-04,2.91327324930535E-07
24.6,-9.22846520552412E-05,-1.0940069478238E-04,-3.31630502614644E-07
24.7,-9.9454446171876E-05,-1.11358836875297E-04,-8.03462000931177E-07
24.8,-1.06152132502757E-04,-1.1278750753263E-04,-1.07641869817598E-06
24.9,-1.09640335722361E-04,-1.13792761112563E-04,-1.13743135443656E-06
25,-1.07763138657901E-04,-1.1463542614365E-04,-1.00910983746871E-06
25.1,-9.93404682958499E-05,-1.15691451355815E-04,-7.44087344628497E-07
25.2,-8.43950911075808E-05,-1.17392402898986E-04,-4.14136252402386E-07
25.3,-6.41786900814623E-05,-1.20154531032313E-04,-9.57380521526829E-08
25.4,-4.09851927543059E-05,-1.2430404603947E-04,1.44585399652897E-07
25.5,-1.77872207132168E-05,-1.30013722809963E-04,2.6383128215457E-07
25.6,2.24565724238346E-06,-1.37258030008525E-04,2.49241850269755E-07
25.7,1.62730229931185E-05,-1.45798068842851E-04,1.21516293916102E-07
25.8,2.22562357521383E-05,-1.55194822582416E-04,-7.02616844705517E-08
25.9,1.93109899555566E-05,-1.64855155162513E-04,-2.58968896105216E-07
26,7.87127646617591E-06,-1.74104250618257E-04,-3.73332738945464E-07
26.1,-1.03567372207181E-05,-1.82271396624856E-04,-3.52959546034981E-07
26.2,-3.2644922612235E-05,-1.88781137694605E-04,-1.6172423045191E-07
26.3,-5.56628474441823E-05,-1.93234329344705E-04,2.03569499035439E-07
26.4,-7.5987380114384E-05,-1.95467247976921E-04,7.10416827587324E-07
26.5,-9.06322311493568E-05,-1.95577886188403E-04,1.29487273170525E-06
26.6,-9.74977156147361E-05,-1.93916348507628E-04,1.87168632237444E-06
26.7,-9.56829389906488E-05,-1.91036640899256E-04,2.34905292018084E-06
26.8,-8.55941179906949E-05,-1.87620302313007E-04,2.64480650002952E-06
26.9,-6.88470972818322E-05,-1.84377538971603E-04,2.70140890279436E-06
27,-4.79676891700365E-05,-1.81947252713144E-04,2.49679601438402E-06
27.1,-2.59578118857462E-05,-1.80803646799177E-04,2.04908087653166E-06
27.2,-5.77891751163406E-06,-1.81192372110672E-04,1.41410191645264E-06
27.3,1.01422792795347E-05,-1.83099968126044E-04,6.76444585678837E-07
27.4,2.03135186893633E-05,-1.86267876415513E-04,-6.48541060854768E-08
27.5,2.44160310103325E-05,-1.90245584235527E-04,-7.13062718205038E-07
27.6,2.33406954066595E-05,-1.94475025637075E-04,-1.19006415388867E-06
27.7,1.90152968571056E-05,-1.98396854102612E-04,-1.4491780575554E-06
27.8,1.40582178573823E-05,-2.01555478270166E-04,-1.4822594494035E-06
27.9,1.13115765998373E-05,-2.03688643523492E-04,-1.31973888528591E-06
28,1.33306702991831E-05,-2.0478421356529E-04,-1.02365447673947E-06
28.1,2.19247995119076E-05,-2.05093529075384E-04,-6.75064541155734E-07
28.2,3.78150725737214E-05,-2.05096395802684E-04,-3.58090431973324E-07
28.3,6.04769193159882E-05,-2.05425239983015E-04,-1.43744060210338E-07
