Structure Position, RAO-Based Response
Line A: Structure Position, RAO-Based Response - Global Z (Part - Center of Gravity relative to Origin of Fixed Reference Axes (FRA)) [m]
Line B: Structure Position, RAO-Based Response - Global RX (Part) [°]
Line C: Structure Position, RAO-Based Response - Global RY (Part) [°]

*Time (s),Line A (m),Line B (°),Line C (°)
0.0,-9.98357136268169E-05,-2.65377657626686E-08,-4.30629768288782E-07
0.1,-1.15131042548455E-04,-3.43823494119988E-08,-1.94692051991296E-06
0.2,-1.26704573631287E-04,-4.13486489492243E-08,-5.45364400750259E-06
0.3,-1.31971202790737E-04,-4.59798137342204E-08,-1.04299379017903E-05
0.4,-1.29211141029373E-04,-4.71476937491389E-08,-1.60826093633659E-05
0.5,-1.17884104838595E-04,-4.42552270385477E-08,-2.14683423109818E-05
0.6,-9.87512466963381E-05,-3.7357107629532E-08,-2.56436396739446E-05
0.7,-7.37855734769255E-05,-2.71702091936277E-08,-2.78145726042567E-05
0.8,-4.58845061075408E-05,-1.49461314435939E-08,-2.74647445621667E-05
0.9,-1.84317177627236E-05,-2.31121366489617E-09,-2.44383354583988E-05
1,5.22443951922469E-06,9.03792507500611E-09,-1.89671027328586E-05
1.1,2.22843100345926E-05,1.75578129812948E-08,-1.16338651423575E-05
1.2,3.09264760289807E-05,2.21449276693875E-08,-3.28140549754607E-06
1.3,3.05774192383979E-05,2.22966658469659E-08,5.12005090058665E-06
1.4,2.19789399125148E-05,1.8188893946558E-08,1.2624409464479E-05
1.5,7.04666672390886E-06,1.06443280856183E-08,1.84548152901698E-05
1.6,-1.14597432911978E-05,9.91364323965627E-10,2.21208829316311E-05
1.7,-3.04020468320232E-05,-9.16150355578793E-09,2.34866784012411E-05
1.8,-4.6776985982433E-05,-1.82019643801823E-08,2.27802065637661E-05
1.9,-5.82067004870623E-05,-2.47674130093856E-08,2.0543184291455E-05
2,-6.33144591120072E-05,-2.79768492816856E-08,1.75290952029172E-05
2.1,-6.19290294707753E-05,-2.75776095293168E-08,1.45685207826318E-05
2.2,-5.50837285118178E-05,-2.39689352810046E-08,1.24231391964713E-05
2.3,-4.48116115876473E-05,-1.81243997587899E-08,1.16522542157327E-05
2.4,-3.37692908942699E-05,-1.14269678164192E-08,1.25161077448865E-05
2.5,-2.47598236455815E-05,-5.40717381980471E-09,1.49309626067406E-05
2.6,-2.02262817765586E-05,-1.48854961690148E-09,1.84821528819157E-05
2.7,-2.18084933294449E-05,-7.20110693297471E-10,2.2495029043057E-05
2.8,-3.00332267215708E-05,-3.60278451516649E-09,2.6151503334404E-05
2.9,-4.41943593614269E-05,-9.98240512473103E-09,2.86301856249338E-05
3,-6.24395906925201E-05,-1.90701552327255E-08,2.92508630082011E-05
3.1,-8.20561181171797E-05,-2.95729751798035E-08,2.75962465821067E-05
3.2,-9.99007825157605E-05,-3.98951911506629E-08,2.35907427850179E-05
3.3,-1.12913352495525E-04,-4.84150781687731E-08,1.75248205778189E-05
3.4,-1.18621639558114E-04,-5.37461204430656E-08,1.00187626230763E-05
3.5,-1.15556002128869E-04,-5.49702541263741E-08,1.9319231796544E-06
3.6,-1.03507351013832E-04,-5.17963805179988E-08,-5.7667248256621E-06
3.7,-8.35812243167311E-05,-4.46112409235866E-08,-1.21489520097384E-05
3.8,-5.80426021770108E-05,-3.44177095712439E-08,-1.64691173267784E-05
3.9,-2.9972394258948E-05,-2.26730811903053E-08,-1.82798139576335E-05
4,-2.79342793874093E-06,-1.10544435827364E-08,-1.7498605302535E-05
4.1,2.02577211894095E-05,-1.18478271637912E-09,-1.44176146932296E-05
4.2,3.66239692084491E-05,5.6285673899481E-09,-9.65263461694121E-06
4.3,4.48123937530909E-05,8.59330384628265E-09,-4.04216280003311E-06
4.4,4.46009071310982E-05,7.55550022546458E-09,1.48837398228352E-06
4.5,3.70383859262802E-05,3.01024827287222E-09,6.07427955401363E-06
4.6,2.42381811403902E-05,-3.99907262860211E-09,9.04684566194192E-06
4.7,9.00167560757836E-06,-1.20655929691793E-08,1.00349070635275E-05
4.8,-5.66851167604909E-06,-1.96704128541114E-08,9.01566181710223E-06
4.9,-1.70786461239913E-05,-2.54452512393755E-08,6.30646354693454E-06
5,-2.32963575399481E-05,-2.84044201492861E-08,2.50139737545396E-06
5.1,-2.34712024393957E-05,-2.81180412287085E-08,-1.64014772963128E-06
5.2,-1.79646831384161E-05,-2.4778623597399E-08,-5.32920375917456E-06
5.3,-8.27609255793504E-06,-1.91672864247039E-08,-7.88946363172727E-06
5.4,3.23057474815869E-06,-1.25163950315255E-08,-8.8779597717803E-06
5.5,1.37447013912606E-05,-6.29667118445809E-09,-8.16649026091909E-06
5.6,2.05096785066416E-05,-1.95785054835085E-09,-5.97028792981291E-06
5.7,2.13164767046692E-05,-6.81410372571634E-10,-2.81563643511618E-06
5.8,1.49082006828394E-05,-3.16749115825132E-09,5.43162741450942E-07
5.9,1.22997960261273E-06,-9.50870493454659E-09,3.24882216773403E-06
6,-1.85235148819629E-05,-1.91642115510149E-08,4.48428090749076E-06
6.1,-4.20661599491723E-05,-3.10377004097973E-08,3.61203819920775E-06
6.2,-6.63670070935041E-05,-4.36499867362272E-08,2.85516080111847E-07
6.3,-8.81192027009092E-05,-5.53726806629129E-08,-5.48495972907403E-06
6.4,-1.04265272966586E-04,-6.4686688006077E-08,-1.33240719151217E-05
6.5,-1.12485380668659E-04,-7.04208957813535E-08,-2.2541713406099E-05
6.6,-1.11569825094193E-04,-7.19437593943439E-08,-3.22350824717432E-05
6.7,-1.01617173640989E-04,-6.92500492505133E-08,-4.14238711528014E-05
6.8,-8.40215216157958E-05,-6.29449274924809E-08,-4.92004728585016E-05
6.9,-6.125531217549E-05,-5.41502558348839E-08,-5.48662574146874E-05
7,-3.64778315997683E-05,-4.43225012247694E-08,-5.80367741349619E-05
7.1,-1.30369244288886E-05,-3.49761357654188E-08,-5.86941714573186E-05
7.2,6.0506145018735E-06,-2.74657345755713E-08,-5.71869022678584E-05
7.3,1.85675035027089E-05,-2.28073169239451E-08,-5.41455228812993E-05
7.4,2.34210347116459E-05,-2.14180460034186E-08,-5.04142954014242E-05
7.5,2.07845896511571E-05,-2.31729959665472E-08,-4.68699545308482E-05
7.6,1.20290742415818E-05,-2.74009721579205E-08,-4.42981145170052E-05
7.7,-5.46826242953102E-07,-3.30142384541432E-08,-4.32620618084911E-05
7.8,-1.41292257467285E-05,-3.87059557738212E-08,-4.40177354903426E-05
7.9,-2.58937634498579E-05,-4.32247588832979E-08,-4.64635377284139E-05
8,-3.3496104151709E-05,-4.55497008999828E-08,-5.01871363667306E-05
8.1,-3.54853800672572E-05,-4.50849526600905E-08,-5.45283728570212E-05
8.2,-3.15572506224271E-05,-4.17829895127397E-08,-5.87032627663575E-05
8.3,-2.26132578973193E-05,-3.61778518254141E-08,-6.19433776591904E-05
8.4,-1.06091683846898E-05,-2.92304118687525E-08,-6.36360055068508E-05
8.5,1.77509753029881E-06,-2.22520206705212E-08,-6.343634595396E-05
8.6,1.15964858196094E-05,-1.66358145037293E-08,-6.13350930507295E-05
8.7,1.61548850883264E-05,-1.36048470267269E-08,-5.76714301132597E-05
8.8,1.34727506519994E-05,-1.40789833125154E-08,-5.30845136381686E-05
8.9,2.65276889876986E-06,-1.84602928499089E-08,-4.84157171740662E-05
9,-1.59346836881014E-05,-2.65628461448841E-08,-4.45746954937931E-05
9.1,-4.06744111387525E-05,-3.76405253632583E-08,-4.23907767981291E-05
9.2,-6.8931512942072E-05,-5.05053030508407E-08,-4.2477753595449E-05
9.3,-9.74493159446865E-05,-6.3702202623972E-08,-4.51259329565801E-05
9.4,-1.22846366139129E-04,-7.57066160872455E-08,-5.02606599184219E-05
9.5,-1.42144708661363E-04,-8.51959995884499E-08,-5.74324440094642E-05
9.6,-1.5322923718486E-04,-9.12391158180981E-08,-6.5892432758119E-05
9.7,-1.55171903315932E-04,-9.33909305445013E-08,-7.47042358852923E-05
9.8,-1.48367529618554E-04,-9.17737565941934E-08,-8.28857955639251E-05
9.9,-1.34454137878492E-04,-8.70673630970487E-08,-8.95617267815396E-05
10,-1.16040719149169E-04,-8.03025912432531E-08,-9.40946483751759E-05
10.1,-9.6274416137021E-05,-7.27700140146226E-08,-9.61796176852658E-05
10.2,-7.83318973844871E-05,-6.57590391028862E-08,-9.58825257839635E-05
10.3,-6.49114881525747E-05,-6.03542744670449E-08,-9.36194701353088E-05
10.4,-5.78125400352292E-05,-5.72582479207995E-08,-9.00791492313147E-05
10.5,-5.76639540668111E-05,-5.67104301296695E-08,-8.61007792991586E-05
10.6,-6.38580168015324E-05,-5.84464281416786E-08,-8.25296083348803E-05
10.7,-7.46878358768299E-05,-6.17657889279144E-08,-8.0072735727299E-05
10.8,-8.76708218129352E-05,-6.56896474993118E-08,-7.91804195614532E-05
10.9,-9.99984913505614E-05,-6.91051411649823E-08,-7.99713016021997E-05
11,-1.09043525299057E-04,-7.10146252913546E-08,-8.22144720586948E-05
11.1,-1.12829700810835E-04,-7.06423648466625E-08,-8.537220855942E-05
11.2,-1.1039314995287E-04,-6.76758915574283E-08,-8.86947673279792E-05
11.3,-1.01970232208259E-04,-6.22914413384024E-08,-9.13528856472112E-05
11.4,-8.89814109541476E-05,-5.51006102966767E-08,-9.25851200008765E-05
11.5,-7.38111702958122E-05,-4.71486814035416E-08,-9.18337391340174E-05
11.6,-5.94210141571239E-05,-3.96570420946318E-08,-8.88502763700672E-05
11.7,-4.88614568894263E-05,-3.39179102581966E-08,-8.37489642435685E-05
11.8,-4.47577112936415E-05,-3.09825693989296E-08,-7.6999218435958E-05
11.9,-4.88616460643243E-05,-3.16139150413619E-08,-6.93605616106652E-05
12,-6.17409023107029E-05,-3.60812641986286E-08,-6.17676269030198E-05
12.1,-8.26559335109778E-05,-4.41090612923745E-08,-5.51831144548487E-05
12.2,-1.0965098044835E-04,-5.49517658043897E-08,-5.04465751873795E-05
12.3,-1.39839510666206E-04,-6.74690738833306E-08,-4.81402421428356E-05
12.4,-1.69842984178104E-04,-8.0296111093503E-08,-4.84945776406676E-05
12.5,-1.96310575120151E-04,-9.2053355160715E-08,-5.13510094606318E-05
12.6,-2.16429878491908E-04,-1.01548849329447E-07,-5.61855704290792E-05
12.7,-2.28356642764993E-04,-1.0793689853017E-07,-6.21927392785437E-05
12.8,-2.31482234084979E-04,-1.10836325006858E-07,-6.84124242980033E-05
12.9,-2.26501520955935E-04,-1.10361995098174E-07,-7.38818634999916E-05
13,-2.15272535569966E-04,-1.07126517434608E-07,-7.77862514951266E-05
13.1,-2.00487484107725E-04,-1.0204507105982E-07,-7.95849191490561E-05
13.2,-1.85216093086638E-04,-9.62507087365339E-08,-7.90898120612837E-05
13.3,-1.72388186911121E-04,-9.08422990164581E-08,-7.64863798394799E-05
13.4,-1.643133291509E-04,-8.67511005253618E-08,-7.22922486602329E-05
13.5,-1.62307071150281E-04,-8.45852810016368E-08,-6.72600726829842E-05
13.6,-1.66489917319268E-04,-8.45044780817261E-08,-6.22431180090643E-05
13.7,-1.75791690708138E-04,-8.62307061311185E-08,-5.80452360736672E-05
13.8,-1.88157428056002E-04,-8.91108200562485E-08,-5.52782112208661E-05
13.9,-2.00922338990495E-04,-9.22214695719958E-08,-5.42549751116894E-05
14,-2.11289923754521E-04,-9.45668006124833E-08,-5.4932515922701E-05
14.1,-2.16834901948459E-04,-9.5215916928737E-08,-5.69169387745205E-05
14.2,-2.15946434764192E-04,-9.35495094722683E-08,-5.952797801001E-05
14.3,-2.08132536499761E-04,-8.92965061893847E-08,-6.1914644902572E-05
14.4,-1.94140680832788E-04,-8.2664243450381E-08,-6.31999282632023E-05
14.5,-1.75868888618425E-04,-7.4311891751222E-08,-6.26336768618785E-05
14.6,-1.56078225700185E-04,-6.52260254696557E-08,-5.97257821937092E-05
14.7,-1.37960989377461E-04,-5.66436071380849E-08,-5.43365895282477E-05
14.8,-1.24628058983944E-04,-4.98036136775681E-08,-4.67125864815898E-05
14.9,-1.18606229079887E-04,-4.57993927227562E-08,-3.74571463908069E-05
15,-1.2141701154178E-04,-4.53636737063334E-08,-2.7438187316875E-05
15.1,-1.33322449983098E-04,-4.87927138692612E-08,-1.76727262442E-05
15.2,-1.53267304995097E-04,-5.58514194892723E-08,-9.1451775006135E-06
15.3,-1.79033537278883E-04,-6.58300436384707E-08,-2.67057521341485E-06
15.4,-2.07581309950911E-04,-7.76266944058079E-08,1.23598124446289E-06
15.5,-2.35517742112279E-04,-8.99153675959496E-08,2.43754743678437E-06
15.6,-2.59627035120502E-04,-1.01339672653467E-07,1.19293270017806E-06
15.7,-2.77359737083316E-04,-1.10707745193395E-07,-1.89000434147601E-06
15.8,-2.87216651486233E-04,-1.17167040514232E-07,-5.95720939600142E-06
15.9,-2.88955518044531E-04,-1.20317992013952E-07,-1.00493798527168E-05
16,-2.83592176856473E-04,-1.20259571190218E-07,-1.32585173560074E-05
16.1,-2.73193960310891E-04,-1.17555920553514E-07,-1.48762173921568E-05
16.2,-2.60510423686355E-04,-1.13121174649677E-07,-1.45003823490697E-05
16.3,-2.48483702307567E-04,-1.08067183646199E-07,-1.21028151625069E-05
16.4,-2.39745553699322E-04,-1.03502415527146E-07,-8.01749411039054E-06
16.5,-2.36166000831872E-04,-1.00345047826522E-07,-2.87490684058866E-06
16.6,-2.38535896642134E-04,-9.91708333231145E-08,2.50747734753531E-06
16.7,-2.4643971119076E-04,-1.00116075429924E-07,7.27754786566948E-06
16.8,-2.58330546785146E-04,-1.02857896422393E-07,1.07011728687212E-05
16.9,-2.7180282631889E-04,-1.06672374045047E-07,1.22882202049368E-05
17,-2.84014706267044E-04,-1.10562112354273E-07,1.18939087769832E-05
17.1,-2.92186159640551E-04,-1.13442069960001E-07,9.74175509327324E-06
17.2,-2.94093537377194E-04,-1.14319632871229E-07,6.40442931398866E-06
17.3,-2.88474228000268E-04,-1.12497062332295E-07,2.70020427706186E-06
17.4,-2.7527820202522E-04,-1.07698873819118E-07,-4.32401606076382E-07
17.5,-2.55714054219425E-04,-1.00143445536105E-07,-2.09115773941448E-06
17.6,-2.32089674682356E-04,-9.05375685533727E-08,-1.56328144385043E-06
17.7,-2.07472156034783E-04,-7.99820156771602E-08,1.55358031861397E-06
17.8,-1.85208846232854E-04,-6.98088271633424E-08,7.27761744201416E-06
17.9,-1.68408936588094E-04,-6.13915958069811E-08,1.52294314830215E-05
18,-1.59449351485819E-04,-5.59093891183693E-08,2.46968374995049E-05
18.1,-1.59600705956109E-04,-5.41911866491773E-08,3.47271707141772E-05
18.2,-1.6882989439182E-04,-5.65439606248219E-08,4.42847740487196E-05
18.3,-1.85804281500168E-04,-6.27364400429542E-08,5.24091592524201E-05
18.4,-2.08111334359273E-04,-7.19969008855514E-08,5.83646069571842E-05
18.5,-2.32645848882385E-04,-8.31336919304704E-08,6.17437763139606E-05
18.6,-2.56104860454798E-04,-9.47409901641549E-08,6.25363245490007E-05
18.7,-2.75508034974337E-04,-1.05374660108737E-07,6.11127106822096E-05
18.8,-2.88662122329697E-04,-1.13805576518189E-07,5.81568347115535E-05
18.9,-2.94488418148831E-04,-1.19192129943713E-07,5.4546329920413E-05
19,-2.93160846922547E-04,-1.21198723945781E-07,5.12011574755888E-05
19.1,-2.86042166408151E-04,-1.20045783091882E-07,4.89297926833387E-05
19.2,-2.75413418421522E-04,-1.16430641128318E-07,4.8293102736352E-05
19.3,-2.6405620155856E-04,-1.11443213768325E-07,4.95147614856251E-05
19.4,-2.54762300755829E-04,-1.06328357674101E-07,5.24474489793647E-05
19.5,-2.49828706728294E-04,-1.02281212832622E-07,5.66047674510628E-05
19.6,-2.50657321885228E-04,-1.00237080857823E-07,6.12489238847047E-05
19.7,-2.57496605627239E-04,-1.00717471696044E-07,6.55240510241129E-05
19.8,-2.69385694991797E-04,-1.03721845334803E-07,6.86088314978406E-05
19.9,-2.84307898255065E-04,-1.08700142220641E-07,6.98646763339639E-05
20,-2.99523613648489E-04,-1.14693385455666E-07,6.89529624651186E-05
20.1,-3.12029820634052E-04,-1.20453620411354E-07,6.59030993119814E-05
20.2,-3.1907475204207E-04,-1.24682372870666E-07,6.11191135249101E-05
20.3,-3.18635342409834E-04,-1.26260133015421E-07,5.53215904801618E-05
20.4,-3.09780065435916E-04,-1.24420807878778E-07,4.94379855808802E-05
20.5,-2.92854645522311E-04,-1.18936867465891E-07,4.44544421043247E-05
20.6,-2.6946485741064E-04,-1.10157152732882E-07,4.12595254601911E-05
20.7,-2.42249574512243E-04,-9.89886643765203E-08,4.04988422815222E-05
20.8,-2.14481027796865E-04,-8.67502620849336E-08,4.24699610448442E-05
20.9,-1.89568439964205E-04,-7.4978778741297E-08,4.70728045911528E-05
21,-1.70528132002801E-04,-6.51928360184684E-08,5.38239837624133E-05
21.1,-1.59521165187471E-04,-5.86536224034262E-08,6.19321872363798E-05
21.2,-1.5752790204715E-04,-5.61733806136999E-08,7.04229096299969E-05
21.3,-1.64207551279105E-04,-5.79436054692906E-08,7.82921342761256E-05
21.4,-1.77977242856286E-04,-6.35670787119125E-08,8.46634429763071E-05
21.5,-1.96283726836555E-04,-7.20651414098938E-08,8.89224538695998E-05
21.6,-2.16034546610899E-04,-8.20632450881931E-08,9.08059955690987E-05
21.7,-2.34100996749476E-04,-9.20060827525049E-08,9.04350963537581E-05
21.8,-2.47831165324897E-04,-1.00428749760795E-07,8.82823442225344E-05
21.9,-2.55469261901453E-04,-1.06157813206664E-07,8.50819778861478E-05
22,-2.56422703387216E-04,-1.08520602282169E-07,8.16981337266043E-05
22.1,-2.51328892773017E-04,-1.07458575371311E-07,7.8973185736686E-05
22.2,-2.41915317019448E-04,-1.03474782520152E-07,7.75810185587034E-05
22.3,-2.30677382205613E-04,-9.75985301465698E-08,7.79114343458787E-05
22.4,-2.204246702604E-04,-9.11759983068805E-08,8.00029956735671E-05
22.5,-2.13771607377566E-04,-8.56143884675475E-08,8.35370519780554E-05
22.6,-2.12668746826239E-04,-8.2149696822853E-08,8.78934224601835E-05
22.7,-2.18040819163434E-04,-8.16119793967118E-08,9.22580220503733E-05
22.8,-2.29599289014004E-04,-8.4304843994687E-08,9.57641896093264E-05
22.9,-2.45861418079585E-04,-8.98509853186624E-08,9.7644682682585E-05
23,-2.64373171376064E-04,-9.74133911313402E-08,9.7369345894549E-05
23.1,-2.82099557807669E-04,-1.05641028369519E-07,9.47429143707268E-05
23.2,-2.95916775939986E-04,-1.1300938496106E-07,8.99491060408764E-05
23.3,-3.03130887914449E-04,-1.18024040318687E-07,8.35309983813204E-05
23.4,-3.01925843814388E-04,-1.19564020906182E-07,7.63142525102012E-05
23.5,-2.91682896204293E-04,-1.16936824667846E-07,6.92801258992404E-05
23.6,-2.73101148195565E-04,-1.10118413942928E-07,6.34153766441159E-05
23.7,-2.48109630774707E-04,-9.97343789777005E-08,5.95568817516323E-05
23.8,-2.19577981624752E-04,-8.69607390541205E-08,5.8262867241865E-05
23.9,-1.90881110029295E-04,-7.336205953834E-08,5.97264806856401E-05
24,-1.65374673088081E-04,-6.06316064022394E-08,6.37494304100983E-05
24.1,-1.45883677760139E-04,-5.02942612001789E-08,6.97763607604429E-05
24.2,-1.34272777359001E-04,-4.35359730488472E-08,7.69888138165697E-05
24.3,-1.31176100694574E-04,-4.09191862615899E-08,8.44372698338702E-05
24.4,-1.35929018142633E-04,-4.23970121232742E-08,9.11948081920855E-05
24.5,-1.46710401168093E-04,-4.72164387588236E-08,9.65023646131158E-05
24.6,-1.60868628881872E-04,-5.41966223011059E-08,9.9886892712675E-05
24.7,-1.75381966982968E-04,-6.17595645735491E-08,1.01227968116291E-04
24.8,-1.87373778317124E-04,-6.83513832200333E-08,1.00767290859949E-04
24.9,-1.94592372281477E-04,-7.26270670270424E-08,9.90545013337396E-05
25,-1.95782791706733E-04,-7.36820595648169E-08,9.68453023233451E-05
25.1,-1.90885388292372E-04,-7.12217129716919E-08,9.49635068536736E-05
25.2,-1.81027295184322E-04,-6.56215135563798E-08,9.4153278041631E-05
25.3,-1.68315003975295E-04,-5.77913397137308E-08,9.49469322222285E-05
25.4,-1.55452973558567E-04,-4.90954441545455E-08,9.7567644843366E-05
25.5,-1.45262834848836E-04,-4.10781098025836E-08,1.01886842458043E-04
25.6,-1.40177842695266E-04,-3.51759048555778E-08,1.07441032014322E-04
25.7,-1.4180110883899E-04,-3.25045235172183E-08,1.135053098551E-04
25.8,-1.50596999446861E-04,-3.35770415915704E-08,1.19215103040915E-04
25.9,-1.6577570931986E-04,-3.83113629709442E-08,1.23708770843223E-04
26,-1.85383963980712E-04,-4.59793092488781E-08,1.26275452203117E-04
26.1,-2.06597484066151E-04,-5.5287799227699E-08,1.26478858874179E-04
26.2,-2.26152857067063E-04,-6.46094164835631E-08,1.24235390103422E-04
26.3,-2.4087140627671E-04,-7.23241697642152E-08,1.1983801232418E-04
26.4,-2.48161202762276E-04,-7.69128618571813E-08,1.13918802526314E-04
26.5,-2.46439361944795E-04,-7.73970825207471E-08,1.07354222564027E-04
26.6,-2.35390893067233E-04,-7.33134086772225E-08,1.0113361349795E-04
26.7,-2.16025830013677E-04,-6.501274896209E-08,9.6207186288666E-05
26.8,-1.90523205674253E-04,-5.33804644931024E-08,9.33413248276338E-05
26.9,-1.61890435265377E-04,-3.98164061721218E-08,9.30032256292179E-05
27,-1.33491936139762E-04,-2.59969805682658E-08,9.5293864433188E-05
27.1,-1.08519518107641E-04,-1.35642244103451E-08,9.99401963781565E-05
27.2,-8.95045886863954E-05,-3.84971432509928E-09,1.06346335087437E-04
27.3,-7.79327747295611E-05,2.24891816280604E-09,1.13696994958445E-04
27.4,-7.40409595891833E-05,4.54267956584431E-09,1.21094577480108E-04
27.5,-7.68169411458075E-05,3.43840667049733E-09,1.27704755868763E-04
27.6,-8.42076551634818E-05,-1.86583023337183E-11,1.32892877445556E-04
27.7,-9.34943527681753E-05,-4.49202897101486E-09,1.36322370963171E-04
27.8,-1.01776713563595E-04,-8.40735747686949E-09,1.38002942549065E-04
27.9,-1.0647889575921E-04,-1.0403804040493E-08,1.38279239763506E-04
28,-1.0580009984551E-04,-9.41676603360975E-09,1.3776273408439E-04
28.1,-9.90238040685654E-05,-5.04943731272078E-09,1.37219409225509E-04
