Structure Position, RAO-Based Response
Line A: Structure Position, RAO-Based Response - Global Z (Part - Center of Gravity relative to Origin of Fixed Reference Axes (FRA)) [m]
Line B: Structure Position, RAO-Based Response - Global RX (Part) [°]
Line C: Structure Position, RAO-Based Response - Global RY (Part) [°]

*Time (s),Line A (m),Line B (°),Line C (°)
0.0,-8.85994377313182E-05,1.11421359179076E-05,-1.22169676615158E-05
0.1,-6.64953840896487E-05,9.61680689215427E-06,-1.08404174170573E-05
0.2,-4.87966935907025E-05,6.68931170366704E-06,-8.18515491118887E-06
0.3,-3.73979237338062E-05,2.84702696262684E-06,-4.72303327114787E-06
0.4,-3.30278744513635E-05,-1.30085004457214E-06,-1.02792500911164E-06
0.5,-3.51643029716797E-05,-5.12849601363996E-06,2.32331171901023E-06
0.6,-4.21601580455899E-05,-8.09825905889738E-06,4.84794600197347E-06
0.7,-5.1558581617428E-05,-9.85108999884688E-06,6.23866435489617E-06
0.8,-6.05390268901829E-05,-1.0264792763337E-05,6.41298311165883E-06
0.9,-6.64247636450455E-05,-9.47258195083123E-06,5.52558230992872E-06
1,-6.71637099003419E-05,-7.83680388849461E-06,3.9384813135257E-06
1.1,-6.1699298385065E-05,-5.8838413679041E-06,2.157328708563E-06
1.2,-5.01740978506859E-05,-4.21039021603065E-06,7.41372048196354E-07
1.3,-3.39270372933242E-05,-3.37645337822323E-06,2.04150310878504E-07
1.4,-1.52847551362356E-05,-3.80399637833762E-06,9.2103601900817E-07
1.5,2.81504867416515E-06,-5.69835628994042E-06,3.05882917928102E-06
1.6,1.73124444700079E-05,-9.00454051588895E-06,6.53856704957434E-06
1.7,2.55408867815277E-05,-1.34084211822483E-05,1.10408009277307E-05
1.8,2.56829134741565E-05,-1.83801603270695E-05,1.60488452820573E-05
1.9,1.70955754583701E-05,-2.32566035265336E-05,2.09266236197436E-05
2,4.44180273007078E-07,-2.7345053240424E-05,2.50166904152138E-05
2.1,-2.23736224143067E-05,-3.00350966426777E-05,2.77432372968178E-05
2.2,-4.85053133161273E-05,-3.08975395455491E-05,2.87031889456557E-05
2.3,-7.45759825804271E-05,-2.97554597636918E-05,2.77309973171214E-05
2.4,-9.72076013567857E-05,-2.67146660917206E-05,2.4924976969487E-05
2.5,-1.13536763819866E-04,-2.21480840991717E-05,2.0633280655602E-05
2.6,-1.21652068628464E-04,-1.66383506439161E-05,1.53991895786021E-05
2.7,-1.20876131404657E-04,-1.08848480522283E-05,9.8766486189561E-06
2.8,-1.11846158688422E-04,-5.59379122933024E-06,4.7275652832468E-06
2.9,-9.63858110480942E-05,-1.36703090447554E-06,5.2099466074651E-07
3,-7.71846243878826E-05,1.39123244480288E-06,-2.35477000387618E-06
3.1,-5.73419783904683E-05,2.53388429882762E-06,-3.74637465938577E-06
3.2,-3.98518895963207E-05,2.18839613808086E-06,-3.75333638658049E-06
3.3,-2.71122044068761E-05,7.27632198049832E-07,-2.70290411208407E-06
3.4,-2.05383148568217E-05,-1.2995000133742E-06,-1.08744040971942E-06
3.5,-2.03515282919398E-05,-3.26614417645033E-06,5.23710355082585E-07
3.6,-2.55663126154104E-05,-4.57773467132938E-06,1.58562329488632E-06
3.7,-3.41848826792557E-05,-4.776733021572E-06,1.6737062651373E-06
3.8,-4.35664915130474E-05,-3.6224412269803E-06,5.58811620976485E-07
3.9,-5.09009005327243E-05,-1.13392559342174E-06,-1.75158572801593E-06
4,-5.3716041293228E-05,2.41182760873926E-06,-5.01240810990566E-06
4.1,-5.03286464663688E-05,6.5269287006231E-06,-8.78154514794005E-06
4.2,-4.0161503420677E-05,1.05950703073177E-05,-1.24930829770165E-05
4.3,-2.38775955949677E-05,1.39780995596084E-05,-1.55549878400052E-05
4.4,-3.30263696923794E-06,1.61268635565648E-05,-1.74512933881488E-05
4.5,1.88479189091595E-05,1.66784593602642E-05,-1.78334739757702E-05
4.6,3.93967166019138E-05,1.55235538841225E-05,-1.65856763487682E-05
4.7,5.52159290236887E-05,1.28316214613733E-05,-1.3852130905434E-05
4.8,6.37363627902232E-05,9.03033196664182E-06,-1.00228162409621E-05
4.9,6.33723975624889E-05,4.74187254440039E-06,-5.68113682675175E-06
5,5.37934865860734E-05,6.8640855488411E-07,-1.50306721025117E-06
5.1,3.59925252269022E-05,-2.43157569457253E-06,1.83077690962818E-06
5.2,1.21429848150001E-05,-4.03423655370716E-06,3.73487341676082E-06
5.3,-1.4730427210452E-05,-3.76189382222947E-06,3.84313352697063E-06
5.4,-4.12227818742394E-05,-1.52910968154174E-06,2.0288105133659E-06
5.5,-6.40736980130896E-05,2.46409786086588E-06,-1.55916302446713E-06
5.6,-8.06677271611989E-05,7.76679371483624E-06,-6.52148855806445E-06
5.7,-8.94275581231341E-05,1.37526149046607E-05,-1.22897099572583E-05
5.8,-9.00330414879136E-05,1.97228473552968E-05,-1.81957948370837E-05
5.9,-8.34373131510802E-05,2.50201555900276E-05,-2.35945208260091E-05
6,-7.16725480742753E-05,2.91340747935465E-05,-2.79621363006299E-05
6.1,-5.74823534407187E-05,3.17810990964063E-05,-3.09772440232337E-05
6.2,-4.38425995525904E-05,3.29453941958491E-05,-3.25677610817365E-05
6.3,-3.34493197442498E-05,3.28743699355982E-05,-3.29151116602589E-05
6.4,-2.82603050436592E-05,3.20294275297783E-05,-3.24165557685774E-05
6.5,-2.91668729914818E-05,3.10012474074028E-05,-3.16104960802477E-05
6.6,-3.58498946297914E-05,3.04031382256653E-05,-3.1078867323231E-05
6.7,-4.6843688323861E-05,3.07609006995335E-05,-3.13420277961995E-05
6.8,-5.97950602241326E-05,3.2418392947875E-05,-3.27639645547606E-05
6.9,-7.18813025741838E-05,3.54732146661263E-05,-3.54843978129793E-05
7,-8.03042639745399E-05,3.97557414544281E-05,-3.93892623833381E-05
7.1,-8.2790655142162E-05,4.48528844572138E-05,-4.41236843471415E-05
7.2,-7.80064438004047E-05,5.01743197673932E-05,-4.91475584567524E-05
7.3,-6.58182761981152E-05,5.50488330191001E-05,-5.3822725021746E-05
7.4,-4.73552317998838E-05,5.88364637224004E-05,-5.75192025280558E-05
7.5,-2.48624546657084E-05,6.10359347774647E-05,-5.97210091655143E-05
7.6,-1.36835558350867E-06,6.1370141338557E-05,-6.01154897594824E-05
7.7,1.97862009372329E-05,5.98359110881574E-05,-5.86505084356759E-05
7.8,3.54683288605884E-05,5.67091701668687E-05,-5.5549757234985E-05
7.9,4.32525303040165E-05,5.25040850334335E-05,-5.12828373757657E-05
8,4.18043237004895E-05,4.78937217849307E-05,-4.64958357042633E-05
8.1,3.10929171973839E-05,4.36049740528688E-05,-4.19124626205303E-05
8.2,1.23957615869585E-05,4.03048979933374E-05,-3.82222024200018E-05
8.3,-1.1906175132026E-05,3.84969098377042E-05,-3.59740151907317E-05
8.4,-3.87094587495085E-05,3.84448539989535E-05,-3.54921976395417E-05
8.5,-6.46766493446194E-05,4.0136063034879E-05,-3.6829624150414E-05
8.6,-8.67678172653541E-05,4.32898377766833E-05,-3.97637450078037E-05
8.7,-1.02704121673014E-04,4.74099033453967E-05,-4.38384377048351E-05
8.8,-1.11313762317877E-04,5.18706074217334E-05,-4.84422416775487E-05
8.9,-1.12682733742986E-04,5.60242442588788E-05,-5.29124699824024E-05
9,-1.08101485238876E-04,5.93095937801991E-05,-5.66452617931645E-05
9.1,-9.98092727968469E-05,6.13446391071193E-05,-5.91949028603267E-05
9.2,-9.05857014004141E-05,6.19875791016966E-05,-6.03457629040349E-05
9.3,-8.32518780953251E-05,6.13565862295218E-05,-6.01442734478042E-05
9.4,-8.0171819718089E-05,5.98052065470256E-05,-5.88860275456682E-05
9.5,-8.28353004180826E-05,5.78569415665697E-05,-5.70606571272947E-05
9.6,-9.15905402507633E-05,5.61115884920582E-05,-5.52628298464697E-05
9.7,-1.05570783489384E-04,5.51377015653998E-05,-5.40854343853425E-05
9.8,-1.22834695503116E-04,5.53707905055489E-05,-5.40123874088749E-05
9.9,-1.40688600367866E-04,5.70329757465515E-05,-5.53290701645892E-05
10,-1.5614039148204E-04,6.00891871727072E-05,-5.80667619942687E-05
10.1,-1.66415105923079E-04,6.42463273834437E-05,-6.1989099776838E-05
10.2,-1.69433478731662E-04,6.89946464262903E-05,-6.66239066049457E-05
10.3,-1.64190249051899E-04,7.36884321668185E-05,-7.13363988325E-05
10.4,-1.50951644172892E-04,7.76473971200176E-05,-7.54295033402741E-05
10.5,-1.31250228150748E-04,8.02663053036667E-05,-7.8257275163196E-05
10.6,-1.07671206933446E-04,8.11128775239922E-05,-7.93308790889569E-05
10.7,-8.34642123663798E-05,7.99981062300503E-05,-7.84005605964921E-05
10.8,-6.2045241065789E-05,7.70070619182661E-05,-7.54986103856936E-05
10.9,-4.64711083623115E-05,7.24872661521658E-05,-7.09381856722757E-05
11,-3.89637607440818E-05,6.69927540002391E-05,-6.5265667217318E-05
11.1,-4.05736318498384E-05,6.11974246567115E-05,-5.9175585192861E-05
11.2,-5.10289355588611E-05,5.57889543415513E-05,-5.34022437932435E-05
11.3,-6.87980718794279E-05,5.13617524120491E-05,-4.86044627905358E-05
11.4,-9.13512849365361E-05,4.83277035527863E-05,-4.52650783699937E-05
11.5,-1.15581911813933E-04,4.68551188532729E-05,-4.36170994362328E-05
11.6,-1.38316376251169E-04,4.68515281681903E-05,-4.36144764535129E-05
11.7,-1.56823807628825E-04,4.79871305287816E-05,-4.49465878773481E-05
11.8,-1.69249964528717E-04,4.97580294904765E-05,-4.70974482595921E-05
11.9,-1.74896078533493E-04,5.15773244842421E-05,-4.94378145958763E-05
12,-1.74302724190056E-04,5.28782038600184E-05,-5.13359191245399E-05
12.1,-1.69125822139904E-04,5.32121521246154E-05,-5.22653317602817E-05
12.2,-1.61820702487603E-04,5.23265262017958E-05,-5.18969136464875E-05
12.3,-1.55194356921129E-04,5.02071998198517E-05,-5.01532995258458E-05
12.4,-1.51902393554337E-04,4.70805971417576E-05,-4.72226784040686E-05
12.5,-1.53966699144803E-04,4.33744098700117E-05,-4.35243237006944E-05
12.6,-1.62405121955089E-04,3.96432988054585E-05,-3.96360410377383E-05
12.7,-1.77027977770194E-04,3.64727457053959E-05,-3.61931415682193E-05
12.8,-1.96444278117269E-04,3.4377291740384E-05,-3.37761994160246E-05
12.9,-2.18268804019317E-04,3.37087185471319E-05,-3.28083369822707E-05
13,-2.39502915064804E-04,3.45916814694647E-05,-3.34765391016845E-05
13.1,-2.57023522863165E-04,3.68952496501151E-05,-3.56932505383156E-05
13.2,-2.68102623522282E-04,4.02480545744766E-05,-3.91028079320677E-05
13.3,-2.70865944912657E-04,4.40912881458644E-05,-4.31328626291361E-05
13.4,-2.64619651716202E-04,4.77637295261957E-05,-4.70828126708511E-05
13.5,-2.49988312134519E-04,5.06039068568498E-05,-5.02336406498216E-05
13.6,-2.28840828640386E-04,5.205271372688E-05,-5.19623317813966E-05
13.7,-2.04012656467967E-04,5.17399348609615E-05,-5.18407287017908E-05
13.8,-1.7887624562718E-04,4.95406457048375E-05,-4.97039582114667E-05
13.9,-1.56819995027035E-04,4.55930603493471E-05,-4.56760535598733E-05
14,-1.40729418490082E-04,4.02737023250666E-05,-4.01486722694244E-05
14.1,-1.32548288092948E-04,3.41362137987744E-05,-3.37174642481841E-05
14.2,-1.32996457978152E-04,2.78217648883583E-05,-2.70854143309407E-05
14.3,-1.41483527841046E-04,2.19572593778139E-05,-2.09499103220878E-05
14.4,-1.56238689669408E-04,1.70584298757603E-05,-1.58926286530914E-05
14.5,-1.74626693478785E-04,1.34514748424408E-05,-1.22892470244551E-05
14.6,-1.93604108062573E-04,1.12275729406974E-05,-1.02543017419521E-05
14.7,-2.10234298720025E-04,1.02374879134004E-05,-9.63100319495425E-06
14.8,-2.22175192902796E-04,1.01252408057917E-05,-1.00255401775939E-05
14.9,-2.2806461493019E-04,1.03962865978247E-05,-1.08813801489305E-05
15,-2.27733849897049E-04,1.050810169545E-05,-1.15802913569496E-05
15.1,-2.22214148379862E-04,9.9681165011134E-06,-1.1552977412066E-05
15.2,-2.1354595082812E-04,8.4210896602599E-06,-1.03798156487755E-05
15.3,-2.04402022063732E-04,5.71472946830909E-06,-7.86682630860014E-06
15.4,-1.97616303921677E-04,1.92879019778047E-06,-4.08175310440129E-06
15.5,-1.95673652342521E-04,-2.63433867075946E-06,6.53939139283466E-07
15.6,-2.00254304218106E-04,-7.49865102989133E-06,5.81814128963742E-06
15.7,-2.11918391869403E-04,-1.20915965453605E-05,1.07743844637298E-05
15.8,-2.29973826208152E-04,-1.58402053784812E-05,1.48791614265065E-05
15.9,-2.52550322329625E-04,-1.82680087164044E-05,1.7591955838725E-05
16,-2.76877428404987E-04,-1.90778100659372E-05,1.85728367796401E-05
16.1,-2.9971866752021E-04,-1.82055719051277E-05,1.772987707227E-05
16.2,-3.17876692861319E-04,-1.58380807988578E-05,1.52610900840955E-05
16.3,-3.28716792864725E-04,-1.23893896670779E-05,1.16140081445337E-05
16.4,-3.30590992234647E-04,-8.44095120555721E-06,7.42238989914767E-06
16.5,-3.23110143654048E-04,-4.6550499064324E-06,3.40564724865544E-06
16.6,-3.0721866642125E-04,-1.6740326600484E-06,2.68678121528865E-07
16.7,-2.85051937680691E-04,-2.36046595603057E-08,-1.44167700000253E-06
16.8,-2.59604043094441E-04,-3.41597505837399E-08,-1.34541062379867E-06
16.9,-2.34261227888055E-04,-1.79306687186909E-06,6.39994766515883E-07
17,-2.12274040677585E-04,-5.13605891683255E-06,4.27398117608391E-06
17.1,-1.96253837202676E-04,-9.67844516708283E-06,9.13689018489095E-06
17.2,-1.87784346053377E-04,-1.48803073898307E-05,1.46248685268802E-05
17.3,-1.87196012120694E-04,-2.01364091481082E-05,2.00712838704931E-05
17.4,-1.93554966244847E-04,-2.48739033850143E-05,2.48565265792422E-05
17.5,-2.04853728064336E-04,-2.86443555523874E-05,2.85084952338366E-05
17.6,-2.18382148887031E-04,-3.11923940898851E-05,3.07752889057156E-05
17.7,-2.31206126045436E-04,-3.24921602441464E-05,3.16695295623504E-05
17.8,-2.40680165006779E-04,-3.27445159200579E-05,3.14426470140461E-05
17.9,-2.44904425926507E-04,-3.23363237839658E-05,3.05514658975881E-05
18,-2.43052447331138E-04,-3.17682570312172E-05,2.95721201837296E-05
18.1,-2.35512256040238E-04,-3.15636389132123E-05,2.90567768388428E-05
18.2,-2.23820054088719E-04,-3.21734078170266E-05,2.95530480798334E-05
18.3,-2.1039301645942E-04,-3.38935969921295E-05,3.13430500682443E-05
18.4,-1.98115638340823E-04,-3.68082437489647E-05,3.45248517987784E-05
18.5,-1.89831233001314E-04,-4.07683073717635E-05,3.88509943149984E-05
18.6,-1.87846133485436E-04,-4.54102737421636E-05,4.39288523921277E-05
18.7,-1.93511747056618E-04,-5.02098082506564E-05,4.91698701807763E-05
18.8,-2.0696030696854E-04,-5.45665388926864E-05,5.39141547051258E-05
18.9,-2.27045879000798E-04,-5.78994950046763E-05,5.75365556869656E-05
19,-2.51490506343544E-04,-5.97437174292281E-05,5.95504134253133E-05
19.1,-2.77225888567045E-04,-5.98282240389381E-05,5.96882200625259E-05
19.2,-3.00858402624726E-04,-5.81250278628431E-05,5.79486950300634E-05
19.3,-3.19201004458591E-04,-5.48589378013276E-05,5.45996481378097E-05
19.4,-3.29772767145187E-04,-5.04770941915922E-05,5.01409413118381E-05
19.5,-3.31185176037252E-04,-4.5583914470626E-05,4.52244057669304E-05
19.6,-3.23355750879273E-04,-4.08496853196993E-05,4.05564205721021E-05
19.7,-3.07513284496963E-04,-3.69095760106575E-05,3.67844477295876E-05
19.8,-2.85993155557662E-04,-3.42679522873368E-05,3.44050095009152E-05
19.9,-2.61856446741149E-04,-3.32241652358789E-05,3.36843586410396E-05
20,-2.38397580687888E-04,-3.38311219820753E-05,3.45946646120865E-05
20.1,-2.18618544749916E-04,-3.58940706064459E-05,3.69572335330304E-05
20.2,-2.04761017812416E-04,-3.90082968806382E-05,4.03165722673293E-05
20.3,-1.97964429389685E-04,-4.26308943133336E-05,4.40167423221283E-05
20.4,-1.98117108084261E-04,-4.61739909951575E-05,4.74914268124849E-05
20.5,-2.03911986318417E-04,-4.91033861180767E-05,5.02067086927127E-05
20.6,-2.13104038266465E-04,-5.10276113345753E-05,5.18093729624525E-05
20.7,-2.22925344132818E-04,-5.17616463184822E-05,5.21634210599586E-05
20.8,-2.30578065384179E-04,-5.13553532073274E-05,5.1380557124503E-05
20.9,-2.33740371186286E-04,-5.00818132422864E-05,4.97965265822131E-05
21,-2.30977777391672E-04,-4.83870680909604E-05,4.79095906484872E-05
21.1,-2.22009810386226E-04,-4.68104626634158E-05,4.62961979792453E-05
21.2,-2.07776713068597E-04,-4.58885406260379E-05,4.54967230325565E-05
21.3,-1.90296865184791E-04,-4.60582414234523E-05,4.59361290268134E-05
21.4,-1.72338128322735E-04,-4.75756060041022E-05,4.78307883895468E-05
21.5,-1.56958209117875E-04,-5.04652525705751E-05,5.11213693243917E-05
21.6,-1.46987833431922E-04,-5.45070361113176E-05,5.56507584406063E-05
21.7,-1.44545614602976E-04,-5.92641335970256E-05,6.08106784056872E-05
21.8,-1.50664520333521E-04,-6.41485457890667E-05,6.60175574012101E-05
21.9,-1.65088757057674E-04,-6.85111008351669E-05,7.06057689967565E-05
22,-1.86286983080208E-04,-7.17465009074658E-05,7.39746465114877E-05
22.1,-2.11662045330741E-04,-7.33888155082241E-05,7.56859008106403E-05
22.2,-2.37944113905542E-04,-7.31894106138498E-05,7.55157161620446E-05
22.3,-2.61693319771439E-04,-7.11588800186291E-05,7.35275461920537E-05
22.4,-2.7982541359961E-04,-6.75688352202997E-05,7.00253804097883E-05
22.5,-2.90087715256959E-04,-6.29112691967748E-05,6.55247058602981E-05
22.6,-2.91393953375518E-04,-5.78231956751551E-05,6.06683315709233E-05
22.7,-2.83976987702772E-04,-5.29883291164879E-05,5.61252818442881E-05
22.8,-2.6932408218272E-04,-4.9031379603548E-05,5.2488441724563E-05
22.9,-2.49915523454547E-04,-4.64229997305665E-05,5.01842114317697E-05
23,-2.28799151955172E-04,-4.5408265577862E-05,4.94111445732415E-05
23.1,-2.09086923860013E-04,-4.59767688880675E-05,5.01207759953104E-05
23.2,-1.934411120601E-04,-4.78691654279828E-05,5.20145404152572E-05
23.3,-1.83649448445067E-04,-5.06296237290371E-05,5.46413975825999E-05
23.4,-1.80346047272906E-04,-5.36868465133011E-05,5.74445948586799E-05
23.5,-1.82934221811593E-04,-5.64548827242106E-05,5.9865451476071E-05
23.6,-1.89714628504589E-04,-5.84354747843463E-05,6.14596210652962E-05
23.7,-1.98205947526731E-04,-5.93044060224202E-05,6.1959661252331E-05
23.8,-2.05590127734467E-04,-5.89690134802368E-05,6.13264128332958E-05
23.9,-2.09224279387854E-04,-5.75836056668777E-05,5.97561120230239E-05
24,-2.07114848308265E-04,-5.55248661839869E-05,5.76488782826345E-05
24.1,-1.98290421394631E-04,-5.33266647835262E-05,5.55405131308362E-05
24.2,-1.82995383511297E-04,-5.15886349603534E-05,5.40110340807587E-05
24.3,-1.62685435498133E-04,-5.08714038005564E-05,5.35850267624483E-05
24.4,-1.39812094857916E-04,-5.15974024892785E-05,5.463917113957E-05
24.5,-1.17438008601312E-04,-5.39724132977426E-05,5.73328907194082E-05
24.6,-9.87439780146815E-05,-5.79433617531322E-05,6.15749013377354E-05
24.7,-8.65092151798308E-05,-6.31987786618993E-05,6.7029737692792E-05
24.8,-8.2651553384494E-05,-6.92110043019056E-05,7.31638501747511E-05
24.9,-8.7899315985851E-05,-7.53155909478664E-05,7.93256549513899E-05
25,-1.0165562707698E-04,-8.08151817182079E-05,8.48440467962064E-05
25.1,-1.22075231047347E-04,-8.5087631305214E-05,8.91314921318553E-05
25.2,-1.46341073559597E-04,-8.76853810041212E-05,9.17747966013849E-05
25.3,-1.71097097336315E-04,-8.84057808434591E-05,9.25967106013559E-05
25.4,-1.92964915186167E-04,-8.73234967002645E-05,9.1682821221184E-05
25.5,-2.09066638490185E-04,-8.47766859806143E-05,8.93641117727384E-05
25.6,-2.17455235542729E-04,-8.13124861451797E-05,8.61625594552606E-05
25.7,-2.17401553527452E-04,-7.75980515754782E-05,8.27065960038453E-05
25.8,-2.09471865673549E-04,-7.43124401196837E-05,7.96295498730615E-05
25.9,-1.95401546079665E-04,-7.20391108188778E-05,7.74711661506444E-05
26,-1.77774374606088E-04,-7.11725006112829E-05,7.65921286074445E-05
26.1,-1.59568822709844E-04,-7.18597148079425E-05,7.7123062510509E-05
26.2,-1.43650700920261E-04,-7.39816532586701E-05,7.8949575254228E-05
26.3,-1.32279805256985E-04,-7.71804334362969E-05,8.17399923107587E-05
26.4,-1.26737562823109E-04,-8.09259290690534E-05,8.50072101457044E-05
26.5,-1.27115155919455E-04,-8.46112379804254E-05,8.81985542946495E-05
26.6,-1.32312066853046E-04,-8.76613485161215E-05,9.07945868675597E-05
26.7,-1.40233431011438E-04,-8.96352576091886E-05,9.24021005630493E-05
26.8,-1.48167411680333E-04,-9.03066320461221E-05,9.28273948375136E-05
26.9,-1.53259024955332E-04,-8.97053178050555E-05,9.21125247259624E-05
27,-1.53021668666042E-04,-8.81180021679029E-05,9.05346823856235E-05
27.1,-1.45786383654922E-04,-8.60415166243911E-05,8.85621993802488E-05
27.2,-1.31017630337738E-04,-8.41026776470244E-05,8.67804556037299E-05
27.3,-1.09441985841841E-04,-8.29517230158672E-05,8.57938139233738E-05
27.4,-8.29714990686625E-05,-8.31534925964661E-05,8.61257285578176E-05
27.5,-5.44177455594763E-05,-8.50875294418074E-05,8.81264422787353E-05
27.6,-2.7062278604717E-05,-8.88812865014188E-05,9.19116064324044E-05
27.7,-4.14712530982797E-06,-9.43812119658105E-05,9.73351634456776E-05
27.8,1.16502169476007E-05,-1.01172568975016E-04,1.04006874607876E-04
27.9,1.86347642738838E-05,-1.08638669189531E-04,1.11345667392015E-04
28,1.63727981998818E-05,-1.16058370622341E-04,1.18669406219851E-04
28.1,5.76051024836488E-06,-1.22715704492293E-04,1.25295075122267E-04
28.2,-1.11184835986933E-05,-1.2801299453713E-04,1.30644722958095E-04
28.3,-3.13177806674503E-05,-1.31562890601344E-04,1.34332149173133E-04
