Structure Position, RAO-Based Response
Line A: Structure Position, RAO-Based Response - Global Z (Part - Center of Gravity relative to Origin of Fixed Reference Axes (FRA)) [m]
Line B: Structure Position, RAO-Based Response - Global RX (Part) [°]
Line C: Structure Position, RAO-Based Response - Global RY (Part) [°]

*Time (s),Line A (m),Line B (°),Line C (°)
0.0,0.0,0.0,0.0
2e-3,6.40513405869569E-07,7.19760029355143E-09,-2.31873951150874E-08
4e-3,2.56210751103936E-06,4.29130757595431E-08,-9.27730994249032E-08
6e-3,5.76485308556585E-06,1.28327414472551E-07,-2.08788492273015E-07
8e-3,1.0248806574964E-05,2.84632591274203E-07,-3.71278588318091E-07
0.01,1.60140170919476E-05,5.32995500179823E-07,-5.8025705129694E-07
0.012,2.30604982789373E-05,8.94612867341493E-07,-8.35775608720724E-07
0.014,3.13882774207741E-05,1.39066162319068E-06,-1.13786109068315E-06
0.016,4.09973654313944E-05,2.04232333089749E-06,-1.48654669374082E-06
0.018,5.18877423019148E-05,2.87077727989526E-06,-1.88186368177412E-06
0.02,6.40593789285049E-05,3.89720116800163E-06,-2.32384377341077E-06
0.022,7.75122389313765E-05,5.14277326146839E-06,-2.81251709566277E-06
0.024,9.22462349990383E-05,6.62866523271077E-06,-3.34791388922895E-06
0.026,1.08261381683405E-04,8.37605784909101E-06,-3.93006621379755E-06
0.028,1.25557533465326E-04,1.04061209640349E-05,-4.55900180895696E-06
0.03,1.44134624861181E-04,1.2740025340463E-05,-5.23474955116399E-06
0.032,1.63992532179691E-04,1.5398936739075E-05,-5.95733854424907E-06
0.034,1.85131124453619E-04,1.84040272870334E-05,-6.72679561830591E-06
0.036,2.07550299819559E-04,2.17764572880697E-05,-7.54314987716498E-06
0.038,2.31249883654527E-04,2.55374998232583E-05,-8.40657776279841E-06
0.04,2.56229774095118E-04,2.97081041935598E-05,-9.316823707195E-06
0.042,2.82489636447281E-04,3.43095271091443E-05,-1.02740414149594E-05
0.044,3.100294561591E-04,3.93629234167747E-05,-1.12782645373954E-05
0.046,3.38848942192271E-04,4.48894425062463E-05,-1.23295130833867E-05
0.048,3.68947861716151E-04,5.09102246724069E-05,-1.34278116092901E-05
0.05,4.00326069211587E-04,5.74464429519139E-05,-1.45731883094413E-05
0.052,4.32983244536445E-04,6.45193867967464E-05,-1.57654685608577E-05
0.054,4.66919154860079E-04,7.21498654456809E-05,-1.70050479937345E-05
0.056,5.02133450936526E-04,8.03591610747389E-05,-1.8291770174983E-05
0.058,5.38626045454293E-04,8.91684467205778E-05,-1.96256642084336E-05
0.06,5.76396414544433E-04,9.85990118351765E-05,-2.10070793400519E-05
0.062,6.15444325376302E-04,1.0867157834582E-04,-2.24353898374829E-05
0.064,6.55769486911595E-04,1.19407464808319E-04,-2.39109231188195E-05
0.066,6.97371608112007E-04,1.30827829707414E-04,-2.54337119258707E-05
0.068,7.40250397939235E-04,1.42953751492314E-04,-2.70037744485307E-05
0.07,7.84405157901347E-04,1.55806003022008E-04,-2.8620639568544E-05
0.072,8.29835887998343E-04,1.69406324857846E-04,-3.02852640743367E-05
0.074,8.76541598699987E-04,1.83775744517334E-04,-3.19977370963898E-05
0.076,9.24522813875228E-04,1.9893491116818E-04,-3.37570600095205E-05
0.078,9.73778194747865E-04,2.14905070606619E-04,-3.55637275788467E-05
0.08,1.0243080323562E-03,2.31707366765477E-04,-3.74177834601142E-05
0.082,1.07611110433936E-03,2.49362725298852E-04,-3.93192131014075E-05
0.084,1.12918764352798E-03,2.67892406554893E-04,-4.12680601584725E-05
0.086,1.18353695143014E-03,2.87317438051105E-04,-4.32643246313091E-05
0.088,1.23915879521519E-03,3.0765839619562E-04,-4.53072498203255E-05
0.09,1.29605166148394E-03,3.28937632730231E-04,-4.73991785838734E-05
0.092,1.35421648155898E-03,3.51174414390698E-04,-4.95369313284755E-05
0.094,1.41365139279515E-03,3.74391209334135E-04,-5.17229673278052E-05
0.096,1.47435651160777E-03,3.98608390241861E-04,-5.39564935024828E-05
0.098,1.53633148875087E-03,4.23847377533093E-04,-5.62375316803809E-05
0.1,1.59957562573254E-03,4.50128922238946E-04,-5.85660782235209E-05
0.102,1.66408775839955E-03,4.77473920909688E-04,-6.09421331319027E-05
0.104,1.72986765392125E-03,5.05903677549213E-04,-6.33657255093567E-05
0.106,1.79691496305168E-03,5.3543975809589E-04,-6.58380522509106E-05
0.108,1.86522863805294E-03,5.66101516596973E-04,-6.835677777417E-05
0.11,1.93480867892504E-03,5.97910489886999E-04,-7.09217856638134E-05
0.112,2.00565345585346E-03,6.30888505838811E-04,-7.35355788492598E-05
0.114,2.07776366733015E-03,6.65055296849459E-04,-7.61978953960352E-05
0.116,2.15113768354058E-03,7.00433505699039E-04,-7.89069090387784E-05
0.118,2.2257745731622E-03,7.37043155822903E-04,-8.16635001683608E-05
0.12,2.3016738705337E-03,7.74905027355999E-04,-8.44676906126551E-05
0.122,2.37883464433253E-03,8.14040307886899E-04,-8.73194585437886E-05
0.124,2.45725689455867E-03,8.54469777550548E-04,-9.02188694453798E-05
0.126,2.53693922422826E-03,8.96214391104877E-04,-9.31658578338102E-05
0.128,2.61788140051067E-03,9.39295452553779E-04,-9.61604819167405E-05
0.13,2.70008249208331E-03,9.83733334578574E-04,-9.9202741694171E-05
0.132,2.7835404034704E-03,1.02955021429807E-03,-1.02291363873519E-04
0.134,2.86825699731708E-03,1.07676384504884E-03,-1.05430088296998E-04
0.136,2.95422947965562E-03,1.12539937254041E-03,-1.08613923657686E-04
0.138,3.0414576176554E-03,1.1754744919017E-03,-1.1184665345354E-04
0.14,3.12993908300996E-03,1.22701132204384E-03,-1.15129209007137E-04
0.142,3.21967620402575E-03,1.28002895507962E-03,-1.18454969197046E-04
0.144,3.3106654882431E-03,1.33455090690404E-03,-1.2183057697257E-04
0.146,3.40290693566203E-03,1.39059650246054E-03,-1.25253849546425E-04
0.148,3.49639868363738E-03,1.44818611443043E-03,-1.28724670503289E-04
0.15,3.59114189632237E-03,1.50734081398696E-03,-1.32244735141285E-04
0.152,3.68713354691863E-03,1.56808434985578E-03,-1.35809314087965E-04
0.154,3.78437433391809E-03,1.63043255452067E-03,-1.39424722874537E-04
0.156,3.88286262750626E-03,1.69440975878388E-03,-1.43086144817062E-04
0.158,3.98259703069925E-03,1.7600356368348E-03,-1.46795180626214E-04
0.16,4.08357614651322E-03,1.82733114343137E-03,-1.50551844853908E-04
0.162,4.18580044060946E-03,1.89631653483957E-03,-1.54356093844399E-04
0.164,4.2892680503428E-03,1.96701311506331E-03,-1.58207956701517E-04
0.166,4.39397804439068E-03,2.03944346867502E-03,-1.62105541676283E-04
0.168,4.49992949143052E-03,2.11362401023507E-03,-1.6605258861091E-04
0.17,4.60712052881718E-03,2.18957755714655E-03,-1.70047176652588E-04
0.172,4.71555255353451E-03,2.26732343435287E-03,-1.74091444932856E-04
0.174,4.8252223059535E-03,2.34688562341034E-03,-1.78181275259703E-04
0.176,4.93612792342901E-03,2.42828484624624E-03,-1.82316507562064E-04
0.178,5.04826894029975E-03,2.51153716817498E-03,-1.86501361895353E-04
0.18,5.16164721921086E-03,2.5966668035835E-03,-1.90733830095269E-04
0.182,5.27625856921077E-03,2.68369354307652E-03,-1.95013824850321E-04
0.184,5.39210252463818E-03,2.77263554744422E-03,-1.99343674466945E-04
0.186,5.50917722284794E-03,2.86352052353323E-03,-2.03716394025832E-04
0.188,5.6274845264852E-03,2.95635988004506E-03,-2.0814138406422E-04
0.19,5.74701931327581E-03,3.05118039250374E-03,-2.126114704879E-04
0.192,5.8677801862359E-03,3.14800092019141E-03,-2.1712901070714E-04
0.194,5.98976947367191E-03,3.24684544466436E-03,-2.21691545448266E-04
0.196,6.11298391595483E-03,3.34772770293057E-03,-2.2630400781054E-04
0.198,6.23742444440722E-03,3.45067330636084E-03,-2.3096396762412E-04
0.2,6.36308547109365E-03,3.55569971725345E-03,-2.35671279369853E-04
0.202,6.48996978998184E-03,3.66282905451953E-03,-2.40426074014977E-04
0.204,6.61807274445891E-03,3.77207738347352E-03,-2.45230970904231E-04
0.206,6.74739805981517E-03,3.88347450643778E-03,-2.50080658588558E-04
0.208,6.87793781980872E-03,3.99703439325094E-03,-2.54977581789717E-04
0.21,7.00969574972987E-03,4.11277962848544E-03,-2.5992194423452E-04
0.212,7.14266998693347E-03,4.23073070123792E-03,-2.64913658611476E-04
0.214,7.27685494348407E-03,4.35090530663729E-03,-2.69952579401433E-04
0.216,7.41225527599454E-03,4.47332626208663E-03,-2.75038939435035E-04
0.218,7.54886725917459E-03,4.59801545366645E-03,-2.80172593193129E-04
0.22,7.68668577075005E-03,4.72498824819922E-03,-2.85353366052732E-04
0.222,7.82571546733379E-03,4.85427072271705E-03,-2.90581519948319E-04
0.224,7.96594843268394E-03,4.98587731271982E-03,-2.95856763841584E-04
0.226,8.10739118605852E-03,5.11983502656221E-03,-3.01179388770834E-04
0.228,8.25003534555435E-03,5.25615876540542E-03,-3.06549074593931E-04
0.23,8.39388370513916E-03,5.39487088099122E-03,-3.1196596683003E-04
0.232,8.5389306768775E-03,5.53599558770657E-03,-3.17426398396492E-04
0.234,8.68517998605967E-03,5.67954545840621E-03,-3.22937499731779E-04
0.236,8.83262697607279E-03,5.82554610446095E-03,-3.28495691064745E-04
0.238,8.98126699030399E-03,5.97401475533843E-03,-3.34108655806631E-04
0.24,9.1311065480113E-03,6.12497329711914E-03,-3.39761172654107E-04
0.242,9.2821391299367E-03,6.27844128757715E-03,-3.45460663083941E-04
0.244,9.43436287343502E-03,6.4344396814704E-03,-3.51207156199962E-04
0.246,9.58777870982885E-03,6.59298757091165E-03,-3.5700062289834E-04
0.248,9.74238011986017E-03,6.75410637632012E-03,-3.62841004971415E-04
0.25,9.8981698974967E-03,6.91781379282475E-03,-3.68728273315355E-04
0.252,1.00551461800933E-02,7.08413263782859E-03,-3.74662486137822E-04
0.254,1.02133089676499E-02,7.25308386608958E-03,-3.80643701646477E-04
0.256,1.03726498782635E-02,7.4246833100915E-03,-3.86671512387693E-04
0.258,1.05331744998693E-02,7.59895658120513E-03,-3.92746267607436E-04
0.26,1.06948800384998E-02,7.77591951191425E-03,-3.98867879994214E-04
0.262,1.08577590435743E-02,7.95559864491224E-03,-4.05047467211261E-04
0.264,1.10218152403831E-02,8.13799537718296E-03,-4.11251094192267E-04
0.266,1.11870486289263E-02,8.32315348088741E-03,-4.17512812418863E-04
0.268,1.13534508273005E-02,8.51107947528362E-03,-4.23821154981852E-04
0.27,1.15210264921188E-02,8.70179757475853E-03,-4.30176180088893E-04
0.272,1.16897691041231E-02,8.89532547444105E-03,-4.36577713117003E-04
0.274,0.011859679594636,9.0916845947504E-03,-4.43025870481506E-04
0.276,1.20307570323348E-02,9.29089542478323E-03,-4.49520593974739E-04
0.278,1.22029976919293E-02,9.49297659099102E-03,-4.56061708973721E-04
0.28,1.23763959854841E-02,9.69794951379299E-03,-4.62662428617477E-04
0.282,1.25509584322572E-02,9.90583095699549E-03,-4.69296617666259E-04
0.284,1.27266803756356E-02,1.01166451349854E-02,-4.75977343739942E-04
0.286,1.29035590216517E-02,1.03304069489241E-02,-4.82704403111711E-04
0.288,1.30815915763378E-02,1.05471396818757E-02,-4.89477824885398E-04
0.29,1.32607752457261E-02,1.07668591663241E-02,-4.9629743443802E-04
0.292,1.34411109611392E-02,1.09895914793015E-02,-5.03163260873407E-04
0.294,1.36225931346416E-02,1.12153412774205E-02,-5.10060635861009E-04
0.296,1.38052254915237E-02,1.14441569894552E-02,-5.17033506184816E-04
0.298,1.39890033751726E-02,1.16760283708572E-02,-5.24022965691984E-04
0.3,1.41739239916205E-02,1.19109945371747E-02,-5.31073193997145E-04
0.302,1.43599873408675E-02,1.21490675956011E-02,-5.38169522769749E-04
0.304,1.45471878349781E-02,0.012390268035233,-5.45311835594475E-04
0.306,1.47355310618877E-02,1.26346172764897E-02,-5.52500248886645E-04
0.308,1.49250039830804E-02,0.012882131151855,-5.59734413400292E-04
0.31,1.51156103238463E-02,1.31328282877803E-02,-5.6701444555074E-04
0.312,1.53073538094759E-02,1.33867375552654E-02,-5.7434051996097E-04
0.314,1.55002223327756E-02,1.36438682675362E-02,-5.81712229177356E-04
0.316,1.56942196190357E-02,1.39042474329472E-02,-5.89129806030542E-04
0.318,1.58893428742886E-02,1.41678899526596E-02,-5.96593075897545E-04
0.32,1.60855948925018E-02,1.44348181784153E-02,-6.04102155193686E-04
0.322,1.62829626351595E-02,1.47050470113754E-02,-6.11656636465341E-04
0.324,1.64814479649067E-02,1.49785932153463E-02,-6.1925669433549E-04
0.326,1.66810546070337E-02,1.52554893866181E-02,-6.26902503427118E-04
0.328,1.68817732483149E-02,0.015535743907094,-6.34593598078936E-04
0.33,1.70836094766855E-02,1.58193856477737E-02,-6.4233026932925E-04
0.332,0.01728655397892,1.61064192652702E-02,-6.50112342555076E-04
0.334,1.74906104803085E-02,1.63968782871962E-02,-6.57939817756414E-04
0.336,1.76957715302706E-02,1.66907738894224E-02,-6.65812462102622E-04
0.338,1.79020334035158E-02,1.69881284236908E-02,-6.7373039200902E-04
0.34,1.81093979626894E-02,1.72889567911625E-02,-6.81693374644965E-04
0.342,1.83178670704365E-02,1.75932850688696E-02,-6.89701642841101E-04
0.344,1.85274351388216E-02,1.79011300206184E-02,-6.97755138389766E-04
0.346,1.87380965799093E-02,1.82125102728605E-02,-7.05853570252657E-04
0.348,1.89498513936996E-02,1.85274463146925E-02,-7.13997113052756E-04
0.35,1.91626995801926E-02,1.88459530472755E-02,-7.22185475751758E-04
0.352,1.93766374140978E-02,1.91680565476418E-02,-7.30418832972646E-04
0.354,1.95916574448347E-02,1.94937661290169E-02,-7.38696951884776E-04
0.356,1.98077633976936E-02,0.019823107868433,-7.47019832488149E-04
0.358,2.00249552726746E-02,2.01561022549868E-02,-7.55387591198087E-04
0.36,2.02432218939066E-02,2.04927604645491E-02,-7.63799878768623E-04
0.362,2.04625744372606E-02,0.020833108574152,-7.72235216572881E-04
0.364,2.06829961389303E-02,0.021177165210247,-7.80736387241632E-04
0.366,2.09044963121414E-02,2.15249564498663E-02,-7.89304787758738E-04
0.368,2.11270619183779E-02,2.18764767050743E-02,-7.97872547991574E-04
0.37,2.13506892323494E-02,2.22317650914192E-02,-8.06530064437538E-04
0.372,2.15753950178623E-02,2.25908420979977E-02,-8.15209525171667E-04
0.374,2.18011569231749E-02,2.29537170380354E-02,-8.23933223728091E-04
0.376,2.20279861241579E-02,2.33204159885645E-02,-8.32701160106808E-04
0.378,2.22558677196503E-02,2.36909464001656E-02,-8.41513101477176E-04
0.38,2.24848110228777E-02,2.40653399378061E-02,-8.50369338877499E-04
0.382,2.27148067206144E-02,2.44436040520668E-02,-8.5924455197528E-04
0.384,2.29458454996347E-02,2.48257592320442E-02,-8.68188159074634E-04
0.386,0.023177944123745,2.52118427306414E-02,-8.77176062203944E-04
0.388,2.34110895544291E-02,2.56018564105034E-02,-8.86207912117243E-04
0.39,2.36452668905258E-02,0.025995809584856,-8.95283184945583E-04
0.392,0.023880498483777,2.63937450945377E-02,-9.04402462765575E-04
0.394,2.41167694330215E-02,2.67956722527742E-02,-9.13565629161894E-04
0.396,2.43540722876787E-02,2.72016022354364E-02,-9.22772276680916E-04
0.398,2.45924014598131E-02,2.76115518063307E-02,-9.32022114284337E-04
0.4,2.48317755758762E-02,2.80255507677794E-02,-9.41316015087068E-04
0.402,2.50721611082554E-02,2.84436102956533E-02,-9.50681162066758E-04
0.404,2.53135934472084E-02,2.88657546043396E-02,-9.60062199737877E-04
0.406,2.55560372024775E-02,2.92919967323542E-02,-9.69486252870411E-04
0.408,2.57994998246431E-02,2.97223515808582E-02,-9.7895332146436E-04
0.41,2.60439906269312E-02,3.01568526774645E-02,-9.88464104011655E-04
0.412,0.026289489120245,3.05955056101084E-02,-9.98017378151417E-04
0.414,2.65360064804554E-02,3.10383308678865E-02,-1.00761419162154E-03
0.416,2.67835296690464E-02,3.14853452146053E-02,-1.0172538459301E-03
0.418,2.70320661365986E-02,3.19365747272968E-02,-1.02693645749241E-03
0.42,2.72815953940153E-02,3.23920175433159E-02,-1.03666144423187E-03
0.422,2.75321397930384E-02,3.28517183661461E-02,-1.0463974904269E-03
0.424,2.77836844325066E-02,0.033315684646368,-1.0562080424279E-03
0.426,2.80362255871296E-02,3.37839424610138E-02,-1.06606120243669E-03
0.428,2.82897558063269E-02,3.42564843595028E-02,-1.0759566212073E-03
0.43,2.85442769527435E-02,0.034733347594738,-1.0858946479857E-03
0.432,2.87997853010893E-02,3.52145470678806E-02,-1.09587493352592E-03
0.434,2.90562864392996E-02,3.57001125812531E-02,-1.10589782707393E-03
0.436,2.93137673288584E-02,3.61900478601456E-02,-1.11596286296844E-03
0.438,2.95722298324108E-02,3.66843678057194E-02,-1.12607015762478E-03
0.44,2.98316720873117E-02,3.71831133961678E-02,-1.1362194782123E-03
0.442,3.00920829176903E-02,3.76862660050392E-02,-1.14641082473099E-03
0.444,3.03534734994173E-02,3.81938815116882E-02,-1.15664419718087E-03
0.446,3.06158270686865E-02,3.87059450149536E-02,-1.1669194791466E-03
0.448,0.030879145488143,3.92224825918674E-02,-1.17723632138222E-03
0.45,3.11434362083673E-02,3.97435389459133E-02,-1.18759518954903E-03
0.452,3.14086824655533E-02,4.02691029012203E-02,-1.19799573440105E-03
0.454,3.16748842597008E-02,4.07992005348206E-02,-1.20843772310764E-03
0.456,3.19420471787453E-02,4.13338392972946E-02,-1.21893314644694E-03
0.458,3.22101600468159E-02,4.18730601668358E-02,-1.22945813927799E-03
0.46,0.032479215413332,4.24168556928635E-02,-1.24002445954829E-03
0.462,3.27492244541645E-02,4.29652892053127E-02,-1.25062011647969E-03
0.464,3.30201759934425E-02,4.35183122754097E-02,-1.26128108240664E-03
0.466,3.32920625805855E-02,4.40759770572186E-02,-1.27197080291808E-03
0.468,3.35648879408836E-02,4.46383319795132E-02,-1.28268951084465E-03
0.47,3.38386557996273E-02,4.52053472399712E-02,-1.29346153698862E-03
0.472,3.41133438050747E-02,4.57770526409149E-02,-1.3042741920799E-03
0.474,0.034388966858387,4.63534481823444E-02,-1.31512759253383E-03
0.476,3.46655026078224E-02,4.69345785677433E-02,-1.32602162193507E-03
0.478,3.49429808557034E-02,4.75204698741436E-02,-1.33696955163032E-03
0.48,3.52213717997074E-02,4.81111109256744E-02,-1.34794495534152E-03
0.482,3.55006754398346E-02,4.87065501511097E-02,-1.35896098800004E-03
0.484,3.57808917760849E-02,4.93067614734173E-02,-1.37001706752926E-03
0.486,3.60620208084583E-02,0.049911804497242,-1.3811137760058E-03
0.488,0.036344051361084,5.05216792225838E-02,-1.39225041493773E-03
0.49,3.66269908845425E-02,5.11363931000233E-02,-1.40342733357102E-03
0.492,3.69108319282532E-02,5.17559796571732E-02,-1.41464429907501E-03
0.494,3.71955595910549E-02,5.23804351687431E-02,-1.42590084578842E-03
0.496,3.74811924993992E-02,0.053009819239378,-1.43719755578786E-03
0.498,3.77677194774151E-02,5.36441057920456E-02,-1.44853419624269E-03
0.5,3.80551293492317E-02,5.42833246290684E-02,-1.4599101850763E-03
0.502,3.83434258401394E-02,5.49274906516075E-02,-1.47132587153465E-03
0.504,3.86326014995575E-02,5.55766373872757E-02,-1.48278113920242E-03
0.506,3.89226637780666E-02,5.62307797372341E-02,-1.49427598807961E-03
0.508,0.039213590323925,5.68898804485798E-02,-1.50576140731573E-03
0.51,3.95053923130035E-02,0.057554055005312,-1.51738279964775E-03
0.512,3.97980622947216E-02,5.82232289016247E-02,-1.52899499516934E-03
0.514,4.00916002690792E-02,5.88974766433239E-02,-1.54064642265439E-03
0.516,4.03860025107861E-02,5.95767870545387E-02,-1.55233673285693E-03
0.518,0.040681254118681,6.02611713111401E-02,-1.56406569294631E-03
0.52,0.040977381169796,6.09506815671921E-02,-1.57583388499916E-03
0.522,4.12743464112282E-02,6.16452917456627E-02,-1.5876404941082E-03
0.524,0.041572168469429,0.062345065176487,-1.59948586951941E-03
0.526,4.18708324432373E-02,6.30499720573425E-02,-1.61136931274086E-03
0.528,4.21703308820724E-02,6.37600421905518E-02,-1.62329117301852E-03
0.53,4.24706786870956E-02,6.44752755761147E-02,-1.63519766647369E-03
0.532,4.27718721330166E-02,6.51957914233208E-02,-1.64725049398839E-03
0.534,4.30738851428032E-02,6.59214779734612E-02,-1.65928713977337E-03
0.536,4.33767139911652E-02,0.0666523873806,-1.67136127129197E-03
0.538,4.36803959310055E-02,0.067388579249382,-1.68347428552806E-03
0.54,4.39848862588406E-02,6.81300014257431E-02,-1.69556820765138E-03
0.542,4.42901998758316E-02,6.88767656683922E-02,-1.70781265478581E-03
0.544,4.45963256061077E-02,6.96287825703621E-02,-1.72003812622279E-03
0.546,4.49032671749592E-02,7.03861191868782E-02,-1.73224392347038E-03
0.548,4.52110171318054E-02,7.11488053202629E-02,-1.74454401712865E-03
0.55,4.55195717513561E-02,7.19168707728386E-02,-1.75694026984274E-03
0.552,4.58289310336113E-02,7.26902782917023E-02,-1.76931545138359E-03
0.554,4.61390912532806E-02,7.34690576791763E-02,-1.78172788582742E-03
0.556,0.046450037509203,0.074253261089325,-1.79417722392827E-03
0.558,4.67617735266685E-02,7.50428512692451E-02,-1.8066632328555E-03
0.56,4.70743030309677E-02,7.58378803730011E-02,-1.81918637827039E-03
0.562,4.73876185715199E-02,7.66383558511734E-02,-1.83174596168101E-03
0.564,4.77017164230347E-02,7.74442926049232E-02,-1.84434244874865E-03
0.566,4.80165891349316E-02,7.82557129859924E-02,-1.85697537381202E-03
